Date,Low,Open,Volume,High,Close,Adjusted Close
04-10-1989,2.4375,2.46875,20636000,2.546875,2.5,1.9481306076049805
05-10-1989,2.5,2.515625,6453600,2.625,2.578125,2.0090088844299316
06-10-1989,2.546875,2.59375,2755200,2.625,2.546875,1.9846580028533936
09-10-1989,2.5,2.546875,1084000,2.546875,2.546875,1.9846580028533936
10-10-1989,2.5,2.5625,1493600,2.5625,2.53125,1.972482681274414
11-10-1989,2.46875,2.5,1260000,2.515625,2.515625,1.9603067636489868
12-10-1989,2.515625,2.515625,602400,2.546875,2.53125,1.972482681274414
13-10-1989,2.46875,2.53125,3970400,2.53125,2.484375,1.93595552444458
16-10-1989,2.375,2.375,3924800,2.46875,2.46875,1.9237793684005737
17-10-1989,2.4375,2.4375,1843200,2.5,2.5,1.9481306076049805
18-10-1989,2.484375,2.5,1128000,2.5625,2.546875,1.9846580028533936
19-10-1989,2.53125,2.53125,1040000,2.546875,2.546875,1.9846580028533936
20-10-1989,2.515625,2.53125,237600,2.53125,2.53125,1.972482681274414
23-10-1989,2.546875,2.546875,87200,2.5625,2.546875,1.9846580028533936
24-10-1989,2.53125,2.546875,689600,2.5625,2.5625,1.9968332052230835
25-10-1989,2.515625,2.546875,608000,2.578125,2.546875,1.9846580028533936
26-10-1989,2.546875,2.546875,228800,2.5625,2.546875,1.9846580028533936
27-10-1989,2.5,2.546875,456000,2.546875,2.515625,1.9603067636489868
30-10-1989,2.5,2.515625,250400,2.515625,2.5,1.9481306076049805
31-10-1989,2.5,2.5,424800,2.515625,2.5,1.9481306076049805
01-11-1989,2.515625,2.515625,715200,2.5625,2.5625,1.9968332052230835
02-11-1989,2.59375,2.59375,130400,2.640625,2.640625,2.057713508605957
03-11-1989,2.625,2.625,1118400,2.75,2.734375,2.1307668685913086
06-11-1989,2.578125,2.71875,264800,2.71875,2.578125,2.0090088844299316
07-11-1989,2.5,2.546875,727200,2.6875,2.6875,2.094240665435791
08-11-1989,2.671875,2.6875,236800,2.71875,2.71875,2.1185925006866455
09-11-1989,2.6875,2.71875,60800,2.71875,2.6875,2.094240665435791
10-11-1989,2.546875,2.6875,210400,2.6875,2.5625,1.9968332052230835
13-11-1989,2.515625,2.5625,92800,2.5625,2.546875,1.9846580028533936
14-11-1989,2.484375,2.578125,428000,2.578125,2.53125,1.972482681274414
15-11-1989,2.53125,2.546875,176000,2.578125,2.5625,1.9968332052230835
16-11-1989,2.546875,2.546875,301600,2.59375,2.59375,2.0211849212646484
17-11-1989,2.59375,2.59375,249600,2.640625,2.640625,2.057713508605957
20-11-1989,2.609375,2.65625,43200,2.65625,2.609375,2.0333611965179443
21-11-1989,2.59375,2.59375,108800,2.671875,2.671875,2.0820648670196533
22-11-1989,2.6875,2.6875,255200,2.75,2.75,2.1429443359375
24-11-1989,2.78125,2.78125,572000,2.953125,2.921875,2.2768778800964355
27-11-1989,2.859375,2.90625,253600,2.9375,2.875,2.2403507232666016
28-11-1989,2.828125,2.875,560000,2.875,2.828125,2.203822135925293
29-11-1989,2.78125,2.8125,60800,2.8125,2.796875,2.179471731185913
30-11-1989,2.8125,2.8125,712800,2.90625,2.890625,2.252526044845581
01-12-1989,2.890625,2.890625,356800,2.953125,2.90625,2.264702081680298
04-12-1989,2.875,2.9375,172000,2.984375,2.984375,2.325580358505249
05-12-1989,2.90625,2.953125,93600,2.984375,2.90625,2.264702081680298
06-12-1989,2.90625,2.90625,668800,3.0,2.984375,2.325580358505249
07-12-1989,2.921875,2.984375,215200,2.984375,2.953125,2.3012311458587646
08-12-1989,2.921875,2.921875,122400,2.953125,2.953125,2.3012311458587646
11-12-1989,2.9375,2.96875,306400,3.03125,3.0,2.3377578258514404
12-12-1989,2.984375,3.015625,1119200,3.03125,3.015625,2.3499338626861572
13-12-1989,2.984375,3.0,400000,3.15625,3.15625,2.45951509475708
14-12-1989,3.109375,3.125,391200,3.140625,3.125,2.435164451599121
15-12-1989,3.09375,3.140625,155200,3.140625,3.109375,2.422987937927246
18-12-1989,3.03125,3.078125,224000,3.125,3.03125,2.3621087074279785
19-12-1989,3.03125,3.03125,215200,3.0625,3.0625,2.386460304260254
20-12-1989,3.046875,3.0625,166400,3.109375,3.078125,2.3986361026763916
21-12-1989,3.0625,3.109375,174400,3.125,3.109375,2.422987937927246
22-12-1989,3.109375,3.125,173600,3.125,3.125,2.435164451599121
26-12-1989,3.078125,3.109375,97600,3.109375,3.078125,2.3986361026763916
27-12-1989,3.03125,3.0625,144000,3.0625,3.03125,2.3621087074279785
28-12-1989,3.03125,3.046875,11200,3.046875,3.03125,2.3621087074279785
29-12-1989,3.015625,3.03125,219200,3.15625,3.15625,2.45951509475708
02-01-1990,3.03125,3.125,194400,3.125,3.046875,2.374284505844116
03-01-1990,3.03125,3.0625,361600,3.0625,3.03125,2.3621087074279785
04-01-1990,2.953125,3.03125,166400,3.0625,2.953125,2.3012311458587646
05-01-1990,2.859375,2.9375,100800,2.9375,2.90625,2.264702081680298
08-01-1990,2.84375,2.875,880800,2.890625,2.859375,2.228175163269043
09-01-1990,2.8125,2.828125,282400,2.84375,2.8125,2.1916468143463135
10-01-1990,2.6875,2.765625,784000,2.765625,2.703125,2.1111068725585938
11-01-1990,2.703125,2.71875,347200,2.765625,2.75,2.147717237472534
12-01-1990,2.6875,2.71875,159200,2.734375,2.71875,2.123309850692749
15-01-1990,2.71875,2.734375,25600,2.734375,2.71875,2.123309850692749
16-01-1990,2.625,2.6875,172800,2.703125,2.703125,2.1111068725585938
17-01-1990,2.71875,2.71875,216000,2.8125,2.71875,2.123309850692749
18-01-1990,2.6875,2.6875,157600,2.71875,2.703125,2.1111068725585938
19-01-1990,2.734375,2.734375,8800,2.75,2.75,2.147717237472534
22-01-1990,2.71875,2.734375,56800,2.75,2.734375,2.135512590408325
23-01-1990,2.734375,2.765625,101600,2.765625,2.75,2.147717237472534
24-01-1990,2.6875,2.734375,26400,2.734375,2.6875,2.098905324935913
25-01-1990,2.671875,2.6875,249600,2.71875,2.71875,2.123309850692749
26-01-1990,2.671875,2.703125,45600,2.71875,2.671875,2.086700677871704
29-01-1990,2.625,2.6875,444000,2.6875,2.640625,2.0622963905334473
30-01-1990,2.578125,2.625,548000,2.65625,2.65625,2.0744991302490234
31-01-1990,2.6875,2.6875,757600,2.859375,2.859375,2.233137369155884
01-02-1990,2.84375,2.875,149600,2.875,2.859375,2.233137369155884
02-02-1990,2.875,2.875,720000,2.90625,2.875,2.2453413009643555
05-02-1990,2.875,2.90625,163200,2.90625,2.875,2.2453413009643555
06-02-1990,2.84375,2.875,99200,2.90625,2.890625,2.257542848587036
07-02-1990,2.90625,2.90625,32800,2.9375,2.9375,2.294151544570923
08-02-1990,2.96875,2.96875,346400,3.125,3.046875,2.3795714378356934
09-02-1990,2.96875,3.078125,179200,3.125,3.0,2.3429629802703857
12-02-1990,2.90625,3.0,28000,3.0,2.90625,2.2697460651397705
13-02-1990,2.9375,2.9375,26400,2.953125,2.953125,2.306356191635132
14-02-1990,2.9375,2.953125,32800,2.96875,2.9375,2.294151544570923
15-02-1990,2.953125,2.953125,152000,2.96875,2.953125,2.306356191635132
16-02-1990,2.96875,2.96875,32000,2.96875,2.96875,2.3185577392578125
20-02-1990,2.953125,2.984375,23200,2.984375,2.953125,2.306356191635132
21-02-1990,2.90625,2.953125,553600,2.953125,2.90625,2.2697460651397705
22-02-1990,2.84375,2.90625,148000,2.90625,2.84375,2.2209341526031494
23-02-1990,2.6875,2.78125,575200,2.78125,2.71875,2.123309850692749
26-02-1990,2.734375,2.734375,477600,2.75,2.75,2.147717237472534
27-02-1990,2.765625,2.765625,357600,2.84375,2.84375,2.2209341526031494
28-02-1990,2.796875,2.8125,145600,2.828125,2.796875,2.184325695037842
01-03-1990,2.75,2.796875,225600,2.796875,2.75,2.147717237472534
02-03-1990,2.6875,2.75,931200,2.78125,2.703125,2.1111068725585938
05-03-1990,2.65625,2.671875,146400,2.703125,2.671875,2.086700677871704
06-03-1990,2.625,2.671875,258400,2.734375,2.734375,2.135512590408325
07-03-1990,2.703125,2.734375,174400,2.75,2.75,2.147717237472534
08-03-1990,2.734375,2.75,146400,2.796875,2.78125,2.1721229553222656
09-03-1990,2.734375,2.75,194400,2.78125,2.734375,2.135512590408325
12-03-1990,2.625,2.703125,1072800,2.71875,2.6875,2.098905324935913
13-03-1990,2.671875,2.671875,662400,2.6875,2.6875,2.098905324935913
14-03-1990,2.671875,2.671875,298400,2.765625,2.765625,2.159919261932373
15-03-1990,2.71875,2.78125,192000,2.796875,2.71875,2.123309850692749
16-03-1990,2.734375,2.75,271200,2.78125,2.78125,2.1721229553222656
19-03-1990,2.75,2.75,476000,2.765625,2.765625,2.159919261932373
20-03-1990,2.75,2.75,898400,2.90625,2.796875,2.184325695037842
21-03-1990,2.796875,2.796875,102400,2.8125,2.796875,2.184325695037842
22-03-1990,2.75,2.75,177600,2.765625,2.765625,2.159919261932373
23-03-1990,2.796875,2.796875,320000,2.796875,2.796875,2.184325695037842
26-03-1990,2.75,2.78125,37600,2.78125,2.75,2.147717237472534
27-03-1990,2.734375,2.734375,24000,2.75,2.75,2.147717237472534
28-03-1990,2.84375,2.84375,706400,2.9375,2.921875,2.281949043273926
29-03-1990,2.890625,2.921875,361600,2.9375,2.90625,2.2697460651397705
30-03-1990,2.921875,2.921875,161600,2.921875,2.921875,2.281949043273926
02-04-1990,2.84375,2.921875,184800,2.921875,2.875,2.2453413009643555
03-04-1990,2.875,2.875,358400,3.03125,2.984375,2.330760955810547
04-04-1990,2.90625,2.984375,364800,2.984375,2.90625,2.2697460651397705
05-04-1990,2.90625,2.9375,373600,2.953125,2.90625,2.2697460651397705
06-04-1990,2.78125,2.921875,810400,2.921875,2.78125,2.1721229553222656
09-04-1990,2.734375,2.734375,336800,2.765625,2.734375,2.140324115753174
10-04-1990,2.71875,2.75,426400,2.8125,2.765625,2.164785146713257
11-04-1990,2.71875,2.78125,234400,2.8125,2.734375,2.140324115753174
12-04-1990,2.59375,2.71875,456000,2.734375,2.625,2.054710626602173
16-04-1990,2.640625,2.640625,273600,2.734375,2.703125,2.1158623695373535
17-04-1990,2.703125,2.71875,16800,2.71875,2.71875,2.1280925273895264
18-04-1990,2.6875,2.6875,333600,2.75,2.71875,2.1280925273895264
19-04-1990,2.671875,2.71875,207200,2.71875,2.6875,2.1036322116851807
20-04-1990,2.65625,2.671875,168800,2.6875,2.671875,2.0914018154144287
23-04-1990,2.625,2.65625,173600,2.65625,2.625,2.054710626602173
24-04-1990,2.625,2.625,458400,2.671875,2.625,2.054710626602173
25-04-1990,2.640625,2.65625,104000,2.671875,2.65625,2.079169988632202
26-04-1990,2.625,2.625,461600,2.6875,2.6875,2.1036322116851807
27-04-1990,2.6875,2.6875,133600,2.703125,2.703125,2.1158623695373535
30-04-1990,2.6875,2.703125,68800,2.71875,2.71875,2.1280925273895264
01-05-1990,2.6875,2.71875,732800,2.828125,2.8125,2.2014760971069336
02-05-1990,2.765625,2.78125,575200,2.828125,2.8125,2.2014760971069336
03-05-1990,2.828125,2.84375,105600,2.859375,2.828125,2.213704824447632
04-05-1990,2.78125,2.84375,279200,2.84375,2.78125,2.177015781402588
07-05-1990,2.78125,2.78125,32800,2.84375,2.84375,2.2259347438812256
08-05-1990,2.828125,2.84375,48800,2.84375,2.828125,2.213704824447632
09-05-1990,2.796875,2.84375,1232800,2.859375,2.796875,2.1892447471618652
10-05-1990,2.796875,2.8125,428000,2.84375,2.796875,2.1892447471618652
11-05-1990,2.828125,2.828125,172000,2.875,2.875,2.250397205352783
14-05-1990,2.75,2.890625,2418400,2.890625,2.75,2.1525533199310303
15-05-1990,2.75,2.78125,5804800,2.828125,2.8125,2.2014760971069336
16-05-1990,2.8125,2.8125,367200,2.96875,2.90625,2.2748591899871826
17-05-1990,2.921875,2.921875,196000,2.953125,2.953125,2.3115503787994385
18-05-1990,2.96875,2.96875,181600,3.0,3.0,2.3482401371002197
21-05-1990,2.921875,2.96875,74400,2.96875,2.953125,2.3115503787994385
22-05-1990,2.96875,2.984375,40800,2.984375,2.96875,2.3237802982330322
23-05-1990,2.90625,2.96875,30400,2.96875,2.90625,2.2748591899871826
24-05-1990,2.75,2.921875,483200,2.921875,2.8125,2.2014760971069336
25-05-1990,2.75,2.8125,817600,2.875,2.875,2.250397205352783
29-05-1990,2.890625,2.890625,60800,2.90625,2.90625,2.2748591899871826
30-05-1990,2.921875,2.9375,129600,2.984375,2.96875,2.3237802982330322
31-05-1990,2.90625,2.9375,143200,2.984375,2.96875,2.3237802982330322
01-06-1990,2.953125,2.96875,47200,2.984375,2.96875,2.3237802982330322
04-06-1990,2.90625,2.9375,68000,2.984375,2.984375,2.3360095024108887
05-06-1990,2.796875,2.984375,1125600,3.0,2.890625,2.2626283168792725
06-06-1990,2.875,2.890625,44000,2.90625,2.875,2.250397205352783
07-06-1990,2.859375,2.890625,212800,2.890625,2.859375,2.2381670475006104
08-06-1990,2.8125,2.875,405600,2.875,2.84375,2.2259347438812256
11-06-1990,2.84375,2.859375,48800,2.890625,2.875,2.250397205352783
12-06-1990,2.859375,2.90625,196000,3.0,2.984375,2.3360095024108887
13-06-1990,2.96875,2.96875,208000,3.09375,2.96875,2.3237802982330322
14-06-1990,2.9375,2.953125,20800,2.984375,2.984375,2.3360095024108887
15-06-1990,2.921875,2.984375,158400,2.984375,2.96875,2.3237802982330322
18-06-1990,2.96875,2.96875,1600,2.96875,2.96875,2.3237802982330322
19-06-1990,2.875,2.9375,174400,2.9375,2.921875,2.2870888710021973
20-06-1990,2.90625,2.953125,127200,2.953125,2.9375,2.29931902885437
21-06-1990,2.921875,2.921875,6400,2.9375,2.9375,2.29931902885437
22-06-1990,2.921875,2.9375,356800,2.953125,2.953125,2.3115503787994385
25-06-1990,2.90625,2.921875,24800,2.9375,2.921875,2.2870888710021973
26-06-1990,2.859375,2.90625,207200,2.921875,2.921875,2.2870888710021973
27-06-1990,2.921875,2.921875,13600,2.9375,2.921875,2.2870888710021973
28-06-1990,2.9375,2.9375,157600,2.96875,2.96875,2.3237802982330322
29-06-1990,2.953125,2.984375,327200,2.984375,2.96875,2.3237802982330322
02-07-1990,2.875,2.953125,322400,2.953125,2.90625,2.2748591899871826
03-07-1990,2.875,2.9375,308800,2.9375,2.875,2.250397205352783
05-07-1990,2.8125,2.84375,596800,2.84375,2.828125,2.213704824447632
06-07-1990,2.78125,2.78125,82400,2.796875,2.796875,2.1892447471618652
09-07-1990,2.75,2.796875,724800,2.8125,2.78125,2.177015781402588
10-07-1990,2.765625,2.78125,1073600,2.78125,2.78125,2.1819188594818115
11-07-1990,2.78125,2.78125,776000,2.8125,2.796875,2.1941757202148438
12-07-1990,2.796875,2.796875,1208800,2.90625,2.875,2.2554662227630615
13-07-1990,2.90625,2.90625,568000,3.0,2.96875,2.329012870788574
16-07-1990,2.96875,2.984375,680800,3.0,2.96875,2.329012870788574
17-07-1990,2.921875,2.96875,102400,2.96875,2.921875,2.2922394275665283
18-07-1990,2.84375,2.921875,348000,2.921875,2.84375,2.2309494018554688
19-07-1990,2.796875,2.8125,465600,2.875,2.875,2.2554662227630615
20-07-1990,2.890625,2.890625,51200,2.90625,2.890625,2.26772403717041
23-07-1990,2.859375,2.875,349600,2.9375,2.9375,2.304497241973877
24-07-1990,2.90625,2.90625,353600,3.015625,2.984375,2.3412723541259766
25-07-1990,3.0,3.015625,52000,3.03125,3.03125,2.3780453205108643
26-07-1990,3.03125,3.0625,80000,3.0625,3.0625,2.402560234069824
27-07-1990,2.984375,3.03125,75200,3.0625,2.984375,2.3412723541259766
30-07-1990,2.984375,3.0,160800,3.0,3.0,2.3535287380218506
31-07-1990,2.953125,2.953125,175200,3.015625,3.0,2.3535287380218506
01-08-1990,3.0,3.03125,134400,3.0625,3.015625,2.3657875061035156
02-08-1990,3.03125,3.125,1056800,3.171875,3.171875,2.4883673191070557
03-08-1990,3.109375,3.15625,1272000,3.265625,3.203125,2.5128817558288574
06-08-1990,3.125,3.25,247200,3.265625,3.125,2.4515931606292725
07-08-1990,3.125,3.125,148800,3.140625,3.140625,2.4638519287109375
08-08-1990,3.09375,3.125,170400,3.140625,3.09375,2.427077531814575
09-08-1990,3.0625,3.09375,296000,3.09375,3.09375,2.427077531814575
10-08-1990,3.09375,3.09375,299200,3.109375,3.09375,2.427077531814575
13-08-1990,3.078125,3.109375,56800,3.125,3.078125,2.4148192405700684
14-08-1990,3.0625,3.109375,49600,3.109375,3.0625,2.402560234069824
15-08-1990,3.0625,3.0625,196000,3.15625,3.125,2.4515931606292725
16-08-1990,3.078125,3.109375,140000,3.125,3.109375,2.4393348693847656
17-08-1990,3.125,3.140625,201600,3.1875,3.140625,2.4638519287109375
20-08-1990,3.046875,3.15625,239200,3.15625,3.046875,2.390303134918213
21-08-1990,3.0625,3.0625,452000,3.09375,3.078125,2.4148192405700684
22-08-1990,3.015625,3.0625,333600,3.09375,3.015625,2.3657875061035156
23-08-1990,2.9375,3.0,364000,3.0,2.96875,2.329012870788574
24-08-1990,2.921875,2.921875,326400,3.0,3.0,2.3535287380218506
27-08-1990,2.953125,3.0,88000,3.0,2.953125,2.3167552947998047
28-08-1990,2.953125,2.953125,8000,2.984375,2.984375,2.3412723541259766
29-08-1990,2.9375,3.015625,140800,3.015625,2.9375,2.304497241973877
30-08-1990,2.90625,2.953125,65600,2.984375,2.984375,2.3412723541259766
31-08-1990,2.890625,2.953125,256800,2.984375,2.921875,2.2922394275665283
04-09-1990,2.9375,2.9375,20000,2.953125,2.953125,2.3167552947998047
05-09-1990,2.953125,2.953125,223200,3.1875,3.171875,2.4883673191070557
06-09-1990,3.1875,3.203125,317600,3.296875,3.296875,2.586430072784424
07-09-1990,3.296875,3.296875,160800,3.359375,3.359375,2.6354634761810303
10-09-1990,3.328125,3.328125,1408800,3.390625,3.359375,2.6354634761810303
11-09-1990,3.1875,3.375,963200,3.375,3.3125,2.5986878871917725
12-09-1990,3.265625,3.34375,336000,3.34375,3.3125,2.5986878871917725
13-09-1990,3.25,3.3125,405600,3.328125,3.25,2.5496559143066406
14-09-1990,3.25,3.25,209600,3.390625,3.390625,2.659977674484253
17-09-1990,3.375,3.390625,1116000,3.46875,3.46875,2.721269130706787
18-09-1990,3.46875,3.46875,776800,3.765625,3.671875,2.880622148513794
19-09-1990,3.65625,3.6875,1624800,3.6875,3.65625,2.868363857269287
20-09-1990,3.53125,3.65625,432000,3.65625,3.53125,2.770301342010498
21-09-1990,3.46875,3.484375,521600,3.5625,3.5625,2.7948172092437744
24-09-1990,3.484375,3.5625,112800,3.5625,3.515625,2.7580418586730957
25-09-1990,3.5,3.5,221600,3.515625,3.515625,2.7580418586730957
26-09-1990,3.453125,3.515625,55200,3.515625,3.46875,2.721269130706787
27-09-1990,3.375,3.4375,72800,3.453125,3.375,2.647719621658325
28-09-1990,3.28125,3.375,163200,3.375,3.34375,2.6232049465179443
01-10-1990,3.296875,3.328125,455200,3.390625,3.34375,2.6232049465179443
02-10-1990,3.328125,3.359375,72000,3.359375,3.359375,2.6354634761810303
03-10-1990,3.3125,3.34375,26400,3.34375,3.34375,2.6232049465179443
04-10-1990,3.25,3.34375,313600,3.34375,3.25,2.5496559143066406
05-10-1990,3.1875,3.234375,550400,3.296875,3.1875,2.500624179840088
08-10-1990,3.1875,3.203125,411200,3.234375,3.1875,2.500624179840088
09-10-1990,3.203125,3.203125,298400,3.375,3.34375,2.6283583641052246
10-10-1990,3.21875,3.34375,200000,3.34375,3.234375,2.542384386062622
11-10-1990,3.203125,3.25,34400,3.25,3.21875,2.5301012992858887
12-10-1990,3.171875,3.1875,89600,3.203125,3.203125,2.5178191661834717
15-10-1990,3.15625,3.203125,36800,3.203125,3.15625,2.4809741973876953
16-10-1990,3.109375,3.140625,153600,3.15625,3.109375,2.444127082824707
17-10-1990,3.09375,3.109375,11200,3.125,3.125,2.4564096927642822
18-10-1990,3.109375,3.109375,113600,3.125,3.109375,2.444127082824707
19-10-1990,3.078125,3.109375,36800,3.109375,3.09375,2.4318463802337646
22-10-1990,3.0625,3.109375,68000,3.109375,3.0625,2.4072813987731934
23-10-1990,3.0625,3.0625,17600,3.109375,3.109375,2.444127082824707
24-10-1990,3.125,3.125,120000,3.15625,3.15625,2.4809741973876953
25-10-1990,3.1875,3.1875,112800,3.328125,3.328125,2.6160762310028076
26-10-1990,3.3125,3.3125,22400,3.359375,3.359375,2.640641927719116
29-10-1990,3.359375,3.375,16000,3.375,3.359375,2.640641927719116
30-10-1990,3.28125,3.34375,29600,3.359375,3.296875,2.5915119647979736
31-10-1990,3.3125,3.3125,366400,3.453125,3.375,2.652920961380005
01-11-1990,3.359375,3.375,163200,3.375,3.375,2.652920961380005
02-11-1990,3.375,3.375,469600,3.53125,3.5,2.7511799335479736
05-11-1990,3.46875,3.53125,426400,3.546875,3.46875,2.7266154289245605
06-11-1990,3.421875,3.484375,8800,3.484375,3.421875,2.6897690296173096
07-11-1990,3.375,3.421875,148000,3.421875,3.375,2.652920961380005
08-11-1990,3.34375,3.34375,37600,3.390625,3.390625,2.66520357131958
09-11-1990,3.375,3.375,397600,3.4375,3.421875,2.6897690296173096
12-11-1990,3.328125,3.390625,76800,3.390625,3.328125,2.6160762310028076
13-11-1990,3.109375,3.15625,208000,3.15625,3.109375,2.444127082824707
14-11-1990,3.109375,3.125,75200,3.1875,3.1875,2.505537509918213
15-11-1990,3.125,3.15625,45600,3.171875,3.140625,2.4686920642852783
16-11-1990,3.09375,3.140625,300800,3.15625,3.15625,2.4809741973876953
19-11-1990,2.984375,3.15625,456800,3.15625,2.984375,2.345872402191162
20-11-1990,2.84375,2.96875,329600,2.96875,2.921875,2.2967426776885986
21-11-1990,2.890625,2.90625,32800,2.96875,2.96875,2.3335893154144287
23-11-1990,2.96875,2.96875,18400,2.984375,2.96875,2.3335893154144287
26-11-1990,2.96875,2.984375,40000,3.0,2.96875,2.3335893154144287
27-11-1990,2.9375,2.984375,39200,2.984375,2.953125,2.32130765914917
28-11-1990,2.90625,2.953125,145600,2.953125,2.921875,2.2967426776885986
29-11-1990,2.90625,2.90625,36800,2.90625,2.90625,2.284461498260498
30-11-1990,2.765625,2.875,236000,2.890625,2.8125,2.210768938064575
03-12-1990,2.609375,2.796875,366400,2.796875,2.75,2.161642074584961
04-12-1990,2.671875,2.734375,230400,2.734375,2.71875,2.137077569961548
05-12-1990,2.71875,2.71875,432000,2.796875,2.78125,2.186204195022583
06-12-1990,2.734375,2.78125,248800,2.8125,2.75,2.161642074584961
07-12-1990,2.625,2.71875,257600,2.71875,2.71875,2.137077569961548
10-12-1990,2.703125,2.734375,179200,2.734375,2.71875,2.137077569961548
11-12-1990,2.703125,2.703125,981600,2.78125,2.734375,2.1493582725524902
12-12-1990,2.734375,2.75,493600,2.78125,2.78125,2.186204195022583
13-12-1990,2.71875,2.75,908000,2.75,2.71875,2.137077569961548
14-12-1990,2.65625,2.71875,207200,2.78125,2.78125,2.186204195022583
17-12-1990,2.734375,2.796875,89600,2.828125,2.734375,2.1493582725524902
18-12-1990,2.703125,2.765625,153600,2.796875,2.703125,2.1247944831848145
19-12-1990,2.640625,2.703125,277600,2.734375,2.640625,2.0756664276123047
20-12-1990,2.546875,2.609375,1007200,2.609375,2.5625,2.014256238937378
21-12-1990,2.484375,2.484375,980000,2.515625,2.5,1.9651260375976562
24-12-1990,2.5,2.5,222400,2.546875,2.546875,2.001974582672119
26-12-1990,2.5625,2.5625,93600,2.75,2.75,2.161642074584961
27-12-1990,2.71875,2.75,51200,2.75,2.734375,2.1493582725524902
28-12-1990,2.65625,2.71875,49600,2.71875,2.65625,2.0879476070404053
31-12-1990,2.53125,2.65625,364800,2.65625,2.65625,2.0879476070404053
02-01-1991,2.59375,2.625,36000,2.625,2.59375,2.0388197898864746
03-01-1991,2.484375,2.59375,413600,2.59375,2.484375,1.952846646308899
04-01-1991,2.328125,2.4375,216800,2.4375,2.328125,1.8300246000289917
07-01-1991,2.21875,2.296875,599200,2.3125,2.265625,1.7808963060379028
08-01-1991,2.15625,2.25,679200,2.265625,2.15625,1.6949228048324585
09-01-1991,2.140625,2.171875,572000,2.1875,2.140625,1.6875321865081787
10-01-1991,2.09375,2.125,296000,2.140625,2.140625,1.6875321865081787
11-01-1991,2.109375,2.109375,278400,2.21875,2.21875,1.7491199970245361
14-01-1991,2.21875,2.234375,172800,2.265625,2.25,1.7737563848495483
15-01-1991,2.171875,2.25,92800,2.25,2.234375,1.7614383697509766
16-01-1991,2.171875,2.234375,50400,2.25,2.203125,1.7368030548095703
17-01-1991,2.03125,2.1875,1341600,2.25,2.203125,1.7368030548095703
18-01-1991,2.15625,2.203125,275200,2.21875,2.1875,1.7244852781295776
21-01-1991,2.0625,2.15625,550400,2.15625,2.125,1.6752147674560547
22-01-1991,2.125,2.15625,174400,2.171875,2.125,1.6752147674560547
23-01-1991,2.140625,2.140625,837600,2.265625,2.25,1.7737563848495483
24-01-1991,2.265625,2.3125,495200,2.34375,2.28125,1.7983914613723755
25-01-1991,2.21875,2.3125,817600,2.375,2.25,1.7737563848495483
28-01-1991,2.203125,2.28125,679200,2.296875,2.234375,1.7614383697509766
29-01-1991,2.25,2.25,99200,2.265625,2.25,1.7737563848495483
30-01-1991,2.203125,2.21875,132000,2.25,2.234375,1.7614383697509766
31-01-1991,2.15625,2.21875,384800,2.21875,2.171875,1.712168574333191
01-02-1991,2.15625,2.15625,869600,2.21875,2.21875,1.7491199970245361
04-02-1991,2.203125,2.21875,961600,2.28125,2.25,1.7737563848495483
05-02-1991,2.25,2.25,1217600,2.375,2.28125,1.7983914613723755
06-02-1991,2.28125,2.28125,1186400,2.5,2.484375,1.9585232734680176
07-02-1991,2.546875,2.546875,1224000,2.78125,2.6875,2.118654251098633
08-02-1991,2.640625,2.65625,94400,2.6875,2.671875,2.106334924697876
11-02-1991,2.640625,2.6875,307200,2.75,2.703125,2.1309707164764404
12-02-1991,2.59375,2.734375,216000,2.734375,2.59375,2.0447466373443604
13-02-1991,2.625,2.625,45600,2.703125,2.703125,2.1309707164764404
14-02-1991,2.515625,2.6875,148800,2.6875,2.515625,1.9831571578979492
15-02-1991,2.484375,2.484375,356800,2.609375,2.609375,2.0570638179779053
19-02-1991,2.515625,2.59375,160800,2.59375,2.546875,2.0077943801879883
20-02-1991,2.515625,2.546875,219200,2.625,2.625,2.069382429122925
21-02-1991,2.59375,2.609375,188000,2.625,2.59375,2.0447466373443604
22-02-1991,2.453125,2.59375,408000,2.59375,2.453125,1.9338871240615845
25-02-1991,2.328125,2.453125,88800,2.453125,2.328125,1.8353445529937744
26-02-1991,2.265625,2.3125,776800,2.328125,2.3125,1.82302725315094
27-02-1991,2.34375,2.34375,1544000,2.453125,2.4375,1.9215692281723022
28-02-1991,2.453125,2.46875,578400,2.59375,2.59375,2.0447466373443604
01-03-1991,2.53125,2.59375,692800,2.59375,2.546875,2.0077943801879883
04-03-1991,2.546875,2.546875,555200,2.609375,2.59375,2.0447466373443604
05-03-1991,2.5625,2.5625,418400,2.578125,2.578125,2.0324294567108154
06-03-1991,2.546875,2.546875,180800,2.59375,2.5625,2.0201120376586914
07-03-1991,2.5625,2.5625,280800,2.625,2.625,2.069382429122925
08-03-1991,2.59375,2.625,442400,2.78125,2.671875,2.106334924697876
11-03-1991,2.6875,2.6875,116000,2.75,2.71875,2.143289804458618
12-03-1991,2.6875,2.75,163200,2.75,2.6875,2.118654251098633
13-03-1991,2.59375,2.671875,147200,2.671875,2.59375,2.0447466373443604
14-03-1991,2.546875,2.578125,184000,2.59375,2.5625,2.0201120376586914
15-03-1991,2.546875,2.546875,289600,2.65625,2.625,2.069382429122925
18-03-1991,2.625,2.640625,136000,2.6875,2.6875,2.118654251098633
19-03-1991,2.609375,2.65625,172000,2.65625,2.625,2.069382429122925
20-03-1991,2.625,2.625,71200,2.65625,2.65625,2.0940170288085938
21-03-1991,2.65625,2.671875,327200,2.734375,2.734375,2.1556057929992676
22-03-1991,2.703125,2.734375,93600,2.734375,2.703125,2.1309707164764404
25-03-1991,2.640625,2.71875,115200,2.71875,2.703125,2.1309707164764404
26-03-1991,2.625,2.671875,447200,2.6875,2.65625,2.0940170288085938
27-03-1991,2.578125,2.640625,86400,2.640625,2.578125,2.0324294567108154
28-03-1991,2.515625,2.578125,70400,2.59375,2.515625,1.9831571578979492
01-04-1991,2.453125,2.53125,128000,2.53125,2.453125,1.9338871240615845
02-04-1991,2.359375,2.46875,367200,2.46875,2.375,1.8722991943359375
03-04-1991,2.3125,2.359375,1358400,2.4375,2.3125,1.82302725315094
04-04-1991,2.34375,2.34375,1049600,2.40625,2.40625,1.896933913230896
05-04-1991,2.421875,2.421875,73600,2.484375,2.484375,1.9585232734680176
08-04-1991,2.4375,2.46875,24000,2.46875,2.4375,1.9215692281723022
09-04-1991,2.375,2.40625,198400,2.4375,2.4375,1.9215692281723022
10-04-1991,2.34375,2.421875,198400,2.421875,2.390625,1.8894612789154053
11-04-1991,2.359375,2.40625,255200,2.4375,2.40625,1.9018096923828125
12-04-1991,2.390625,2.40625,398400,2.46875,2.46875,1.951209306716919
15-04-1991,2.5,2.5,258400,2.5625,2.546875,2.0129542350769043
16-04-1991,2.53125,2.53125,468000,2.640625,2.625,2.0747029781341553
17-04-1991,2.578125,2.640625,662400,2.640625,2.578125,2.037653923034668
18-04-1991,2.609375,2.609375,68800,2.640625,2.625,2.0747029781341553
19-04-1991,2.5625,2.609375,20000,2.625,2.578125,2.037653923034668
22-04-1991,2.484375,2.578125,263200,2.578125,2.5,1.975906491279602
23-04-1991,2.453125,2.484375,69600,2.5,2.5,1.975906491279602
24-04-1991,2.46875,2.5,44800,2.5,2.5,1.975906491279602
25-04-1991,2.46875,2.484375,70400,2.484375,2.46875,1.951209306716919
26-04-1991,2.421875,2.453125,24000,2.453125,2.4375,1.926509976387024
29-04-1991,2.34375,2.421875,373600,2.421875,2.34375,1.8524119853973389
30-04-1991,2.328125,2.375,1024800,2.375,2.375,1.8771107196807861
01-05-1991,2.34375,2.375,403200,2.421875,2.421875,1.9141603708267212
02-05-1991,2.375,2.40625,714400,2.40625,2.375,1.8771107196807861
03-05-1991,2.359375,2.40625,464000,2.4375,2.390625,1.8894612789154053
06-05-1991,2.359375,2.375,11200,2.375,2.359375,1.8647620677947998
07-05-1991,2.28125,2.375,360800,2.375,2.34375,1.8524119853973389
08-05-1991,2.328125,2.34375,567200,2.453125,2.4375,1.926509976387024
09-05-1991,2.40625,2.453125,150400,2.46875,2.46875,1.951209306716919
10-05-1991,2.375,2.453125,88800,2.453125,2.375,1.8771107196807861
13-05-1991,2.28125,2.359375,872000,2.359375,2.28125,1.8030152320861816
14-05-1991,2.28125,2.28125,366400,2.375,2.3125,1.8277148008346558
15-05-1991,2.3125,2.3125,276000,2.40625,2.390625,1.8894612789154053
16-05-1991,2.421875,2.453125,404000,2.46875,2.421875,1.9141603708267212
17-05-1991,2.390625,2.421875,25600,2.421875,2.40625,1.9018096923828125
20-05-1991,2.390625,2.40625,121600,2.4375,2.40625,1.9018096923828125
21-05-1991,2.34375,2.4375,480800,2.4375,2.375,1.8771107196807861
22-05-1991,2.375,2.375,31200,2.390625,2.390625,1.8894612789154053
23-05-1991,2.375,2.40625,240800,2.421875,2.40625,1.9018096923828125
24-05-1991,2.375,2.421875,160800,2.453125,2.390625,1.8894612789154053
28-05-1991,2.375,2.375,60000,2.453125,2.4375,1.926509976387024
29-05-1991,2.421875,2.4375,334400,2.4375,2.4375,1.926509976387024
30-05-1991,2.421875,2.4375,521600,2.5,2.5,1.975906491279602
31-05-1991,2.53125,2.53125,1612000,2.625,2.625,2.0747029781341553
03-06-1991,2.609375,2.65625,256000,2.6875,2.625,2.0747029781341553
04-06-1991,2.625,2.65625,1272800,2.671875,2.625,2.0747029781341553
05-06-1991,2.578125,2.625,141600,2.625,2.578125,2.037653923034668
06-06-1991,2.5625,2.5625,201600,2.609375,2.59375,2.05000376701355
07-06-1991,2.53125,2.59375,473600,2.59375,2.53125,2.000605821609497
10-06-1991,2.53125,2.546875,168000,2.5625,2.53125,2.000605821609497
11-06-1991,2.4375,2.53125,155200,2.53125,2.5,1.975906491279602
12-06-1991,2.484375,2.5,51200,2.5,2.5,1.975906491279602
13-06-1991,2.484375,2.5,1600,2.5,2.484375,1.9635579586029053
14-06-1991,2.46875,2.46875,83200,2.46875,2.46875,1.951209306716919
17-06-1991,2.453125,2.46875,21600,2.46875,2.453125,1.9388571977615356
18-06-1991,2.4375,2.46875,341600,2.46875,2.46875,1.951209306716919
19-06-1991,2.46875,2.46875,170400,2.5,2.5,1.975906491279602
20-06-1991,2.375,2.4375,30400,2.4375,2.375,1.8771107196807861
21-06-1991,2.3125,2.34375,251200,2.375,2.34375,1.8524119853973389
24-06-1991,2.3125,2.359375,124800,2.375,2.375,1.8771107196807861
25-06-1991,2.359375,2.375,39200,2.375,2.359375,1.8647620677947998
26-06-1991,2.296875,2.328125,188000,2.359375,2.3125,1.8277148008346558
27-06-1991,2.28125,2.3125,260800,2.34375,2.3125,1.8277148008346558
28-06-1991,2.25,2.3125,418400,2.3125,2.25,1.7783172130584717
01-07-1991,2.203125,2.25,188800,2.25,2.203125,1.7412678003311157
02-07-1991,2.21875,2.21875,127200,2.25,2.234375,1.7659662961959839
03-07-1991,2.203125,2.203125,267200,2.28125,2.25,1.7783172130584717
05-07-1991,2.25,2.25,3200,2.25,2.25,1.7783172130584717
08-07-1991,2.25,2.25,192800,2.296875,2.296875,1.8153650760650635
09-07-1991,2.234375,2.28125,359200,2.3125,2.265625,1.795552372932434
10-07-1991,2.234375,2.25,56000,2.25,2.234375,1.7707843780517578
11-07-1991,2.25,2.25,152800,2.328125,2.3125,1.8327008485794067
12-07-1991,2.28125,2.34375,1025600,2.359375,2.296875,1.8203181028366089
15-07-1991,2.328125,2.328125,791200,2.375,2.375,1.8822336196899414
16-07-1991,2.34375,2.359375,1204800,2.421875,2.421875,1.9193830490112305
17-07-1991,2.4375,2.453125,1052000,2.59375,2.59375,2.055596113204956
18-07-1991,2.625,2.625,304800,2.671875,2.671875,2.1175124645233154
19-07-1991,2.609375,2.671875,73600,2.671875,2.625,2.0803637504577637
22-07-1991,2.5625,2.625,72000,2.625,2.59375,2.055596113204956
23-07-1991,2.578125,2.609375,124000,2.625,2.578125,2.0432138442993164
24-07-1991,2.578125,2.578125,39200,2.59375,2.578125,2.0432138442993164
25-07-1991,2.5625,2.5625,232800,2.578125,2.5625,2.0308327674865723
26-07-1991,2.5625,2.5625,226400,2.59375,2.59375,2.055596113204956
29-07-1991,2.59375,2.609375,6400,2.609375,2.609375,2.0679800510406494
30-07-1991,2.59375,2.59375,582400,2.65625,2.625,2.0803637504577637
31-07-1991,2.53125,2.5625,698400,2.578125,2.53125,2.0060646533966064
01-08-1991,2.53125,2.53125,248800,2.578125,2.5625,2.0308327674865723
02-08-1991,2.546875,2.546875,71200,2.546875,2.546875,2.018446445465088
05-08-1991,2.546875,2.5625,96800,2.578125,2.5625,2.0308327674865723
06-08-1991,2.5625,2.5625,457600,2.625,2.59375,2.055596113204956
07-08-1991,2.59375,2.59375,733600,2.625,2.625,2.0803637504577637
08-08-1991,2.625,2.640625,413600,2.6875,2.640625,2.092745304107666
09-08-1991,2.625,2.625,111200,2.65625,2.65625,2.105130195617676
12-08-1991,2.640625,2.6875,223200,2.703125,2.65625,2.105130195617676
13-08-1991,2.640625,2.640625,118400,2.6875,2.6875,2.129896402359009
14-08-1991,2.671875,2.671875,372000,2.75,2.75,2.1794273853302
15-08-1991,2.71875,2.75,369600,2.75,2.75,2.1794273853302
16-08-1991,2.703125,2.734375,490400,2.734375,2.703125,2.142277956008911
19-08-1991,2.609375,2.671875,91200,2.671875,2.609375,2.0679800510406494
20-08-1991,2.609375,2.609375,22400,2.625,2.625,2.0803637504577637
21-08-1991,2.609375,2.625,78400,2.625,2.625,2.0803637504577637
22-08-1991,2.5625,2.640625,292800,2.640625,2.59375,2.055596113204956
23-08-1991,2.59375,2.59375,1125600,2.75,2.75,2.1794273853302
26-08-1991,2.734375,2.75,183200,2.78125,2.75,2.1794273853302
27-08-1991,2.75,2.75,362400,2.84375,2.8125,2.2289605140686035
28-08-1991,2.828125,2.84375,203200,2.953125,2.9375,2.3280251026153564
29-08-1991,2.921875,2.921875,416800,3.0,2.953125,2.34040904045105
30-08-1991,2.90625,2.96875,236800,2.96875,2.921875,2.315643072128296
03-09-1991,2.78125,2.890625,230400,2.890625,2.78125,2.204193115234375
04-09-1991,2.75,2.765625,175200,2.8125,2.765625,2.1918110847473145
05-09-1991,2.796875,2.796875,309600,2.828125,2.8125,2.2289605140686035
06-09-1991,2.78125,2.8125,55200,2.828125,2.828125,2.241342306137085
09-09-1991,2.8125,2.8125,8000,2.84375,2.84375,2.253726005554199
10-09-1991,2.8125,2.828125,452800,2.84375,2.84375,2.253726005554199
11-09-1991,2.8125,2.828125,145600,2.84375,2.84375,2.253726005554199
12-09-1991,2.84375,2.859375,48000,2.859375,2.84375,2.253726005554199
13-09-1991,2.828125,2.875,366400,2.875,2.84375,2.253726005554199
16-09-1991,2.828125,2.859375,433600,2.859375,2.84375,2.253726005554199
17-09-1991,2.84375,2.84375,648800,2.890625,2.890625,2.2908761501312256
18-09-1991,2.90625,2.90625,136800,2.9375,2.9375,2.3280251026153564
19-09-1991,2.921875,2.953125,153600,3.03125,3.03125,2.4023239612579346
20-09-1991,3.0,3.078125,312000,3.078125,3.03125,2.4023239612579346
23-09-1991,2.96875,3.0625,113600,3.0625,2.96875,2.352789878845215
24-09-1991,2.875,2.96875,77600,2.96875,2.875,2.278493642807007
25-09-1991,2.875,2.890625,7200,2.890625,2.875,2.278493642807007
26-09-1991,2.875,2.90625,296000,2.953125,2.953125,2.34040904045105
27-09-1991,2.953125,2.96875,70400,3.0,2.96875,2.352789878845215
30-09-1991,2.953125,2.953125,229600,2.984375,2.984375,2.3651745319366455
01-10-1991,2.859375,2.984375,1317600,3.0,2.859375,2.266108989715576
02-10-1991,2.84375,2.84375,740800,2.9375,2.90625,2.3032596111297607
03-10-1991,2.890625,2.90625,106400,2.90625,2.890625,2.2908761501312256
04-10-1991,2.859375,2.875,599200,2.890625,2.890625,2.2908761501312256
07-10-1991,2.859375,2.875,973600,2.9375,2.9375,2.3280251026153564
08-10-1991,2.90625,2.9375,735200,2.953125,2.9375,2.332988739013672
09-10-1991,2.90625,2.9375,43200,2.9375,2.90625,2.308169364929199
10-10-1991,2.875,2.90625,144000,2.921875,2.90625,2.308169364929199
11-10-1991,2.90625,2.921875,23200,2.921875,2.921875,2.3205795288085938
14-10-1991,2.9375,2.9375,32000,2.984375,2.96875,2.357806921005249
15-10-1991,2.984375,2.984375,181600,3.015625,3.015625,2.3950369358062744
16-10-1991,3.0,3.046875,104000,3.078125,3.0,2.3826282024383545
17-10-1991,2.984375,3.0,89600,3.03125,3.03125,2.4074478149414062
18-10-1991,3.0,3.046875,87200,3.046875,3.0,2.3826282024383545
21-10-1991,2.984375,2.984375,3200,2.984375,2.984375,2.3702163696289062
22-10-1991,2.875,2.953125,495200,2.953125,2.875,2.2833521366119385
23-10-1991,2.890625,2.953125,95200,2.953125,2.890625,2.2957603931427
24-10-1991,2.84375,2.875,35200,2.875,2.84375,2.258531093597412
25-10-1991,2.75,2.8125,277600,2.8125,2.765625,2.196484327316284
28-10-1991,2.75,2.75,181600,2.84375,2.84375,2.258531093597412
29-10-1991,2.75,2.859375,404800,2.859375,2.765625,2.196484327316284
30-10-1991,2.78125,2.78125,12800,2.796875,2.796875,2.221303701400757
31-10-1991,2.796875,2.8125,37600,2.84375,2.84375,2.258531093597412
01-11-1991,2.84375,2.859375,62400,2.9375,2.9375,2.332988739013672
04-11-1991,2.921875,2.921875,624800,3.078125,3.03125,2.4074478149414062
05-11-1991,3.046875,3.046875,421600,3.140625,3.109375,2.469494104385376
06-11-1991,3.03125,3.140625,228000,3.140625,3.03125,2.4074478149414062
07-11-1991,3.0,3.046875,206400,3.046875,3.03125,2.4074478149414062
08-11-1991,3.015625,3.015625,96800,3.0625,3.0625,2.432265520095825
11-11-1991,3.03125,3.0625,20000,3.0625,3.03125,2.4074478149414062
12-11-1991,3.0,3.0,71200,3.046875,3.03125,2.4074478149414062
13-11-1991,3.03125,3.03125,127200,3.140625,3.125,2.481902837753296
14-11-1991,3.015625,3.125,102400,3.125,3.03125,2.4074478149414062
15-11-1991,2.890625,3.015625,141600,3.015625,2.9375,2.332988739013672
18-11-1991,2.875,2.9375,236800,2.9375,2.875,2.2833521366119385
19-11-1991,2.8125,2.890625,143200,2.890625,2.8125,2.2337121963500977
20-11-1991,2.78125,2.796875,144000,2.796875,2.78125,2.208894729614258
21-11-1991,2.78125,2.78125,202400,2.84375,2.796875,2.221303701400757
22-11-1991,2.75,2.78125,97600,2.78125,2.75,2.184075355529785
25-11-1991,2.75,2.75,16800,2.765625,2.765625,2.196484327316284
26-11-1991,2.609375,2.75,346400,2.75,2.625,2.0847995281219482
27-11-1991,2.625,2.640625,76800,2.65625,2.625,2.0847995281219482
29-11-1991,2.640625,2.640625,28800,2.65625,2.65625,2.1096184253692627
02-12-1991,2.59375,2.65625,299200,2.671875,2.59375,2.0599794387817383
03-12-1991,2.59375,2.59375,97600,2.65625,2.65625,2.1096184253692627
04-12-1991,2.625,2.65625,20800,2.65625,2.625,2.0847995281219482
05-12-1991,2.625,2.625,96800,2.6875,2.640625,2.097207546234131
06-12-1991,2.640625,2.640625,858400,2.65625,2.640625,2.097207546234131
09-12-1991,2.59375,2.625,57600,2.625,2.59375,2.0599794387817383
10-12-1991,2.484375,2.5625,171200,2.5625,2.5,1.9855220317840576
11-12-1991,2.453125,2.515625,415200,2.5625,2.546875,2.0227508544921875
12-12-1991,2.515625,2.515625,124000,2.53125,2.53125,2.0103416442871094
13-12-1991,2.5,2.53125,319200,2.53125,2.5,1.9855220317840576
16-12-1991,2.484375,2.5,372800,2.515625,2.515625,1.9979326725006104
17-12-1991,2.515625,2.515625,683200,2.53125,2.53125,2.0103416442871094
18-12-1991,2.546875,2.546875,112800,2.578125,2.578125,2.04757022857666
19-12-1991,2.53125,2.5625,392800,2.5625,2.546875,2.0227508544921875
20-12-1991,2.5,2.53125,164800,2.53125,2.515625,1.9979326725006104
23-12-1991,2.421875,2.5,1115200,2.5,2.421875,1.923474907875061
24-12-1991,2.40625,2.421875,107200,2.515625,2.515625,1.9979326725006104
26-12-1991,2.5,2.5,15200,2.515625,2.5,1.9855220317840576
27-12-1991,2.46875,2.5,48000,2.5,2.46875,1.9607027769088745
30-12-1991,2.421875,2.46875,920800,2.46875,2.4375,1.9358857870101929
31-12-1991,2.421875,2.4375,116000,2.484375,2.4375,1.9358857870101929
02-01-1992,2.390625,2.421875,732000,2.421875,2.390625,1.8986566066741943
03-01-1992,2.375,2.390625,277600,2.390625,2.375,1.8862484693527222
06-01-1992,2.3125,2.390625,528000,2.390625,2.328125,1.8490194082260132
07-01-1992,2.140625,2.3125,584000,2.3125,2.140625,1.70010244846344
08-01-1992,2.109375,2.125,692800,2.203125,2.125,1.6876945495605469
09-01-1992,2.109375,2.125,348000,2.171875,2.171875,1.724923014640808
10-01-1992,2.140625,2.15625,840800,2.234375,2.234375,1.7745598554611206
13-01-1992,2.234375,2.234375,456000,2.328125,2.296875,1.8241981267929077
14-01-1992,2.21875,2.296875,281600,2.3125,2.21875,1.7621521949768066
15-01-1992,2.234375,2.234375,377600,2.296875,2.28125,1.8117893934249878
16-01-1992,2.28125,2.28125,80800,2.328125,2.328125,1.8490194082260132
17-01-1992,2.359375,2.359375,47200,2.421875,2.421875,1.923474907875061
20-01-1992,2.421875,2.421875,91200,2.53125,2.515625,1.9979326725006104
21-01-1992,2.515625,2.53125,578400,2.546875,2.515625,1.9979326725006104
22-01-1992,2.484375,2.515625,300000,2.515625,2.484375,1.9731125831604004
23-01-1992,2.453125,2.46875,313600,2.5,2.453125,1.9482946395874023
24-01-1992,2.3125,2.453125,1104800,2.453125,2.3125,1.836608648300171
27-01-1992,2.25,2.296875,292800,2.296875,2.265625,1.7993810176849365
28-01-1992,2.1875,2.265625,2736800,2.265625,2.1875,1.7373324632644653
29-01-1992,2.15625,2.203125,463200,2.25,2.203125,1.7497421503067017
30-01-1992,2.140625,2.140625,405600,2.21875,2.1875,1.7373324632644653
31-01-1992,2.1875,2.203125,714400,2.296875,2.25,1.7869704961776733
03-02-1992,2.21875,2.265625,96800,2.265625,2.234375,1.7745598554611206
04-02-1992,2.1875,2.21875,355200,2.234375,2.203125,1.7497421503067017
05-02-1992,2.15625,2.203125,604000,2.203125,2.171875,1.724923014640808
06-02-1992,2.09375,2.1875,492800,2.1875,2.09375,1.6628754138946533
07-02-1992,2.078125,2.078125,704000,2.21875,2.21875,1.7621521949768066
10-02-1992,2.234375,2.234375,782400,2.34375,2.328125,1.8490194082260132
11-02-1992,2.3125,2.328125,241600,2.34375,2.3125,1.836608648300171
12-02-1992,2.28125,2.3125,446400,2.328125,2.3125,1.836608648300171
13-02-1992,2.296875,2.3125,161600,2.3125,2.296875,1.8241981267929077
14-02-1992,2.28125,2.296875,190400,2.328125,2.328125,1.8490194082260132
18-02-1992,2.28125,2.3125,504800,2.3125,2.296875,1.8241981267929077
19-02-1992,2.265625,2.28125,20800,2.28125,2.265625,1.7993810176849365
20-02-1992,2.265625,2.265625,260800,2.296875,2.296875,1.8241981267929077
21-02-1992,2.296875,2.296875,311200,2.328125,2.3125,1.836608648300171
24-02-1992,2.3125,2.328125,249600,2.34375,2.3125,1.836608648300171
25-02-1992,2.28125,2.3125,144000,2.3125,2.28125,1.8117893934249878
26-02-1992,2.25,2.265625,835200,2.265625,2.265625,1.7993810176849365
27-02-1992,2.25,2.25,67200,2.296875,2.265625,1.7993810176849365
28-02-1992,2.234375,2.234375,321600,2.265625,2.234375,1.7745598554611206
02-03-1992,2.25,2.25,588800,2.296875,2.25,1.7869704961776733
03-03-1992,2.25,2.265625,608800,2.28125,2.25,1.7869704961776733
04-03-1992,2.234375,2.234375,488000,2.25,2.25,1.7869704961776733
05-03-1992,2.265625,2.265625,607200,2.28125,2.28125,1.8117893934249878
06-03-1992,2.28125,2.28125,404800,2.296875,2.28125,1.8117893934249878
09-03-1992,2.28125,2.28125,348000,2.328125,2.328125,1.8490194082260132
10-03-1992,2.328125,2.328125,348000,2.40625,2.390625,1.8986566066741943
11-03-1992,2.390625,2.40625,376000,2.40625,2.40625,1.9110649824142456
12-03-1992,2.40625,2.4375,347200,2.4375,2.40625,1.9110649824142456
13-03-1992,2.421875,2.4375,138400,2.46875,2.46875,1.9607027769088745
16-03-1992,2.40625,2.5,122400,2.5,2.40625,1.9110649824142456
17-03-1992,2.421875,2.4375,569600,2.4375,2.4375,1.9358857870101929
18-03-1992,2.40625,2.421875,46400,2.421875,2.40625,1.9110649824142456
19-03-1992,2.375,2.4375,394400,2.4375,2.40625,1.9110649824142456
20-03-1992,2.453125,2.46875,232000,2.484375,2.46875,1.9607027769088745
23-03-1992,2.5,2.5,545600,2.546875,2.5,1.9855220317840576
24-03-1992,2.5,2.5,618400,2.578125,2.5625,2.035161018371582
25-03-1992,2.5625,2.578125,116800,2.578125,2.578125,2.04757022857666
26-03-1992,2.609375,2.609375,959200,2.734375,2.6875,2.134437084197998
27-03-1992,2.609375,2.625,236800,2.65625,2.625,2.0847995281219482
30-03-1992,2.609375,2.625,324800,2.625,2.625,2.0847995281219482
31-03-1992,2.640625,2.640625,307200,2.65625,2.65625,2.1096184253692627
01-04-1992,2.609375,2.65625,172800,2.65625,2.609375,2.072387456893921
02-04-1992,2.578125,2.609375,878400,2.609375,2.59375,2.0599794387817383
03-04-1992,2.546875,2.5625,109600,2.5625,2.5625,2.035161018371582
06-04-1992,2.578125,2.578125,336000,2.734375,2.734375,2.1716649532318115
07-04-1992,2.6875,2.734375,612000,2.734375,2.6875,2.134437084197998
08-04-1992,2.625,2.671875,771200,2.671875,2.625,2.0847995281219482
09-04-1992,2.609375,2.609375,170400,2.75,2.75,2.189286947250366
10-04-1992,2.734375,2.734375,213600,2.75,2.734375,2.1768479347229004
13-04-1992,2.75,2.765625,141600,2.78125,2.765625,2.2017266750335693
14-04-1992,2.78125,2.78125,228000,2.8125,2.8125,2.2390434741973877
15-04-1992,2.8125,2.8125,312000,2.828125,2.828125,2.251481771469116
16-04-1992,2.8125,2.8125,39200,2.828125,2.8125,2.2390434741973877
20-04-1992,2.8125,2.8125,245600,2.890625,2.890625,2.301239490509033
21-04-1992,2.875,2.921875,337600,2.921875,2.90625,2.313678741455078
22-04-1992,2.875,2.890625,8800,2.890625,2.875,2.2888009548187256
23-04-1992,2.84375,2.875,1366400,2.984375,2.875,2.2888009548187256
24-04-1992,3.0,3.03125,687200,3.171875,3.0,2.3883144855499268
27-04-1992,3.03125,3.0625,511200,3.09375,3.046875,2.425629138946533
28-04-1992,3.015625,3.046875,234400,3.046875,3.03125,2.413193941116333
29-04-1992,3.03125,3.046875,237600,3.046875,3.03125,2.413193941116333
30-04-1992,3.03125,3.046875,1008800,3.0625,3.046875,2.425629138946533
01-05-1992,3.03125,3.03125,146400,3.046875,3.046875,2.425629138946533
04-05-1992,3.0625,3.0625,251200,3.078125,3.0625,2.4380710124969482
05-05-1992,3.046875,3.046875,532000,3.078125,3.078125,2.4505093097686768
06-05-1992,3.015625,3.078125,792800,3.078125,3.015625,2.4007534980773926
07-05-1992,2.96875,3.015625,61600,3.015625,2.96875,2.363434314727783
08-05-1992,2.9375,3.0,42400,3.0,2.953125,2.3509950637817383
11-05-1992,2.90625,2.953125,91200,2.953125,2.90625,2.313678741455078
12-05-1992,2.75,2.921875,1191200,2.921875,2.796875,2.22660493850708
13-05-1992,2.765625,2.796875,261600,2.796875,2.765625,2.2017266750335693
14-05-1992,2.6875,2.765625,1236800,2.84375,2.84375,2.2639217376708984
15-05-1992,2.8125,2.828125,509600,2.90625,2.890625,2.301239490509033
18-05-1992,2.90625,2.90625,431200,3.015625,3.0,2.3883144855499268
19-05-1992,2.953125,3.0,572000,3.046875,3.046875,2.425629138946533
20-05-1992,3.0625,3.0625,200800,3.09375,3.09375,2.46294903755188
21-05-1992,3.078125,3.078125,946400,3.15625,3.09375,2.46294903755188
22-05-1992,3.078125,3.09375,230400,3.15625,3.140625,2.5002658367156982
26-05-1992,3.125,3.140625,1300800,3.1875,3.1875,2.537583112716675
27-05-1992,3.125,3.203125,1122400,3.25,3.125,2.487825393676758
28-05-1992,3.078125,3.140625,627200,3.140625,3.125,2.487825393676758
29-05-1992,3.078125,3.125,368800,3.125,3.09375,2.46294903755188
01-06-1992,3.078125,3.078125,348800,3.171875,3.171875,2.5251433849334717
02-06-1992,3.125,3.140625,108000,3.15625,3.140625,2.5002658367156982
03-06-1992,3.125,3.15625,1278400,3.1875,3.15625,2.512704610824585
04-06-1992,3.125,3.125,1169600,3.140625,3.140625,2.5002658367156982
05-06-1992,3.140625,3.15625,816800,3.1875,3.1875,2.537583112716675
08-06-1992,3.21875,3.21875,1822400,3.375,3.3125,2.637096643447876
09-06-1992,3.28125,3.3125,2077600,3.34375,3.3125,2.637096643447876
10-06-1992,3.21875,3.3125,778400,3.3125,3.28125,2.612217664718628
11-06-1992,3.28125,3.28125,438400,3.40625,3.40625,2.71173095703125
12-06-1992,3.34375,3.375,2042400,3.375,3.34375,2.6619739532470703
15-06-1992,3.296875,3.328125,2438400,3.328125,3.3125,2.637096643447876
16-06-1992,3.296875,3.328125,660800,3.328125,3.296875,2.6246578693389893
17-06-1992,3.21875,3.3125,673600,3.3125,3.234375,2.5749006271362305
18-06-1992,3.21875,3.21875,948800,3.265625,3.234375,2.5749006271362305
19-06-1992,3.234375,3.25,417600,3.265625,3.234375,2.5749006271362305
22-06-1992,3.203125,3.203125,568000,3.21875,3.203125,2.5500214099884033
23-06-1992,3.203125,3.203125,518400,3.21875,3.203125,2.5500214099884033
24-06-1992,3.171875,3.21875,224000,3.21875,3.21875,2.5624608993530273
25-06-1992,3.125,3.21875,307200,3.21875,3.125,2.487825393676758
26-06-1992,3.109375,3.125,629600,3.140625,3.140625,2.5002658367156982
29-06-1992,3.125,3.125,1169600,3.1875,3.171875,2.5251433849334717
30-06-1992,3.15625,3.1875,1156800,3.1875,3.1875,2.537583112716675
01-07-1992,3.203125,3.21875,694400,3.25,3.25,2.587340831756592
02-07-1992,3.25,3.28125,2007200,3.296875,3.28125,2.612217664718628
06-07-1992,3.296875,3.3125,771200,3.328125,3.3125,2.637096643447876
07-07-1992,3.3125,3.3125,655200,3.359375,3.328125,2.6495351791381836
08-07-1992,3.3125,3.328125,480800,3.34375,3.328125,2.6495351791381836
09-07-1992,3.328125,3.34375,424000,3.375,3.359375,2.6794450283050537
10-07-1992,3.328125,3.390625,568800,3.390625,3.328125,2.6545205116271973
13-07-1992,3.328125,3.328125,624800,3.359375,3.359375,2.6794450283050537
14-07-1992,3.390625,3.390625,627200,3.625,3.578125,2.853921413421631
15-07-1992,3.515625,3.59375,465600,3.609375,3.53125,2.8165323734283447
16-07-1992,3.390625,3.5,143200,3.5,3.421875,2.729295015335083
17-07-1992,3.421875,3.4375,45600,3.453125,3.4375,2.7417588233947754
20-07-1992,3.390625,3.4375,645600,3.453125,3.390625,2.7043702602386475
21-07-1992,3.390625,3.390625,224000,3.421875,3.40625,2.7168331146240234
22-07-1992,3.40625,3.40625,235200,3.484375,3.484375,2.779146194458008
23-07-1992,3.46875,3.5,112000,3.515625,3.5,2.7916083335876465
24-07-1992,3.5,3.5,329600,3.609375,3.609375,2.878845691680908
27-07-1992,3.5625,3.609375,66400,3.609375,3.59375,2.8663837909698486
28-07-1992,3.53125,3.59375,91200,3.59375,3.5625,2.841458559036255
29-07-1992,3.546875,3.5625,84800,3.578125,3.578125,2.853921413421631
30-07-1992,3.5625,3.5625,565600,3.640625,3.640625,2.9037718772888184
31-07-1992,3.625,3.640625,500800,3.65625,3.640625,2.9037718772888184
03-08-1992,3.625,3.625,492000,3.703125,3.703125,2.953620433807373
04-08-1992,3.6875,3.6875,398400,3.71875,3.71875,2.9660840034484863
05-08-1992,3.375,3.59375,268800,3.59375,3.40625,2.7168331146240234
06-08-1992,3.171875,3.25,1166400,3.265625,3.25,2.5922086238861084
07-08-1992,3.25,3.25,996000,3.515625,3.515625,2.8040709495544434
10-08-1992,3.5,3.515625,88000,3.5625,3.546875,2.828996419906616
11-08-1992,3.546875,3.546875,2608000,3.5625,3.546875,2.828996419906616
12-08-1992,3.5625,3.5625,92800,3.59375,3.59375,2.8663837909698486
13-08-1992,3.609375,3.625,684800,3.734375,3.734375,2.9785468578338623
14-08-1992,3.734375,3.78125,1344000,3.84375,3.75,2.9910099506378174
17-08-1992,3.671875,3.71875,1498400,3.71875,3.6875,2.9411585330963135
18-08-1992,3.578125,3.671875,823200,3.6875,3.59375,2.8663837909698486
19-08-1992,3.5,3.5,844800,3.6875,3.5625,2.841458559036255
20-08-1992,3.5625,3.625,7611200,3.640625,3.59375,2.8663837909698486
21-08-1992,3.59375,3.609375,1631200,3.640625,3.59375,2.8663837909698486
24-08-1992,3.578125,3.578125,1412000,3.609375,3.578125,2.853921413421631
25-08-1992,3.578125,3.578125,1002400,3.71875,3.671875,2.928697109222412
26-08-1992,3.6875,3.6875,1988000,3.75,3.75,2.9910099506378174
27-08-1992,3.71875,3.734375,872800,3.796875,3.78125,3.0159335136413574
28-08-1992,3.8125,3.8125,1732800,3.9375,3.9375,3.1405599117279053
31-08-1992,3.84375,3.90625,1392800,3.984375,3.875,3.090709686279297
01-09-1992,3.859375,3.875,740000,3.9375,3.90625,3.1156344413757324
02-09-1992,3.875,3.9375,458400,3.953125,3.890625,3.1031713485717773
03-09-1992,3.890625,3.90625,617600,3.921875,3.921875,3.128096103668213
04-09-1992,3.921875,3.921875,190400,3.96875,3.953125,3.153021812438965
08-09-1992,3.953125,3.953125,1150400,4.09375,4.078125,3.252720832824707
09-09-1992,4.0625,4.078125,660000,4.09375,4.09375,3.2651848793029785
10-09-1992,4.0625,4.09375,809600,4.109375,4.078125,3.252720832824707
11-09-1992,4.0625,4.078125,549600,4.109375,4.109375,3.2776474952697754
14-09-1992,4.109375,4.140625,684000,4.171875,4.125,3.290109872817993
15-09-1992,4.109375,4.125,557600,4.140625,4.109375,3.2776474952697754
16-09-1992,4.09375,4.109375,723200,4.171875,4.125,3.290109872817993
17-09-1992,4.125,4.125,565600,4.28125,4.21875,3.3648855686187744
18-09-1992,4.1875,4.1875,668000,4.3125,4.3125,3.43966007232666
21-09-1992,4.328125,4.328125,808000,4.34375,4.34375,3.464585304260254
22-09-1992,4.296875,4.3125,662400,4.375,4.359375,3.4770474433898926
23-09-1992,4.359375,4.375,898400,4.46875,4.375,3.489511013031006
24-09-1992,4.390625,4.390625,1256800,4.484375,4.46875,3.564284086227417
25-09-1992,4.203125,4.421875,1837600,4.4375,4.25,3.389810562133789
28-09-1992,4.109375,4.25,1749600,4.25,4.125,3.290109872817993
29-09-1992,4.171875,4.203125,276800,4.234375,4.234375,3.3773467540740967
30-09-1992,4.15625,4.21875,330400,4.234375,4.15625,3.315035343170166
01-10-1992,4.03125,4.140625,378400,4.140625,4.03125,3.2153327465057373
02-10-1992,4.015625,4.046875,772800,4.078125,4.046875,3.227797508239746
05-10-1992,3.953125,4.046875,312000,4.046875,3.96875,3.16548490524292
06-10-1992,3.90625,3.96875,885600,3.96875,3.9375,3.1405599117279053
07-10-1992,3.953125,3.953125,649600,4.015625,3.984375,3.177948236465454
08-10-1992,3.96875,3.96875,266400,4.0625,4.0,3.195422649383545
09-10-1992,3.90625,3.96875,112000,4.03125,3.9375,3.1454944610595703
12-10-1992,3.9375,3.9375,351200,3.953125,3.953125,3.157975435256958
13-10-1992,3.890625,3.9375,412000,3.953125,3.9375,3.1454944610595703
14-10-1992,3.921875,3.9375,341600,3.953125,3.9375,3.1454944610595703
15-10-1992,3.90625,3.9375,205600,3.9375,3.90625,3.1205289363861084
16-10-1992,3.921875,3.921875,1151200,4.078125,4.0625,3.245349407196045
19-10-1992,4.0625,4.0625,756000,4.3125,4.28125,3.4200985431671143
20-10-1992,4.203125,4.265625,209600,4.265625,4.21875,3.3701725006103516
21-10-1992,4.140625,4.203125,104800,4.203125,4.15625,3.320244073867798
22-10-1992,3.953125,4.140625,365600,4.140625,3.953125,3.157975435256958
23-10-1992,3.9375,3.96875,101600,3.96875,3.953125,3.157975435256958
26-10-1992,3.953125,3.953125,396800,4.015625,4.0,3.195422649383545
27-10-1992,3.8125,3.984375,318400,3.984375,3.859375,3.083082437515259
28-10-1992,3.71875,3.859375,920800,3.859375,3.828125,3.0581178665161133
29-10-1992,3.828125,3.828125,348000,3.90625,3.84375,3.070600986480713
30-10-1992,3.8125,3.875,143200,3.875,3.8125,3.0456364154815674
02-11-1992,3.828125,3.828125,156800,3.875,3.875,3.0955655574798584
03-11-1992,3.75,3.875,296800,3.875,3.75,2.9957082271575928
04-11-1992,3.65625,3.765625,464000,3.78125,3.65625,2.9208173751831055
05-11-1992,3.46875,3.625,1245600,3.625,3.484375,2.7835118770599365
06-11-1992,3.53125,3.53125,1823200,3.671875,3.65625,2.9208173751831055
09-11-1992,3.5,3.625,1322400,3.65625,3.546875,2.8334410190582275
10-11-1992,3.5625,3.5625,1669600,3.625,3.625,2.895850658416748
11-11-1992,3.5625,3.625,551200,3.625,3.5625,2.8459224700927734
12-11-1992,3.5625,3.625,1320800,3.640625,3.578125,2.858405828475952
13-11-1992,3.59375,3.609375,324000,3.640625,3.625,2.895850658416748
16-11-1992,3.609375,3.609375,257600,3.65625,3.65625,2.9208173751831055
17-11-1992,3.625,3.625,304000,3.640625,3.625,2.895850658416748
18-11-1992,3.625,3.625,693600,3.640625,3.640625,2.9083333015441895
19-11-1992,3.46875,3.609375,821600,3.640625,3.5,2.7959933280944824
20-11-1992,3.53125,3.53125,536800,3.59375,3.59375,2.8708858489990234
23-11-1992,3.5625,3.5625,660000,3.671875,3.625,2.895850658416748
24-11-1992,3.578125,3.609375,503200,3.609375,3.59375,2.8708858489990234
25-11-1992,3.578125,3.578125,96000,3.609375,3.59375,2.8708858489990234
27-11-1992,3.578125,3.59375,230400,3.625,3.625,2.895850658416748
30-11-1992,3.53125,3.625,539200,3.625,3.546875,2.8334410190582275
01-12-1992,3.53125,3.546875,1116800,3.546875,3.53125,2.820957899093628
02-12-1992,3.53125,3.53125,721600,3.578125,3.578125,2.858405828475952
03-12-1992,3.421875,3.5625,1191200,3.5625,3.4375,2.7460663318634033
04-12-1992,3.421875,3.4375,1249600,3.5,3.5,2.7959933280944824
07-12-1992,3.484375,3.484375,167200,3.546875,3.5,2.7959933280944824
08-12-1992,3.453125,3.5,580000,3.515625,3.484375,2.7835118770599365
09-12-1992,3.484375,3.5,374400,3.546875,3.53125,2.820957899093628
10-12-1992,3.484375,3.546875,1601600,3.609375,3.609375,2.883368968963623
11-12-1992,3.65625,3.65625,151200,3.703125,3.671875,2.933298110961914
14-12-1992,3.609375,3.671875,920000,3.671875,3.65625,2.9208173751831055
15-12-1992,3.609375,3.640625,406400,3.640625,3.625,2.895850658416748
16-12-1992,3.59375,3.609375,402400,3.625,3.59375,2.8708858489990234
17-12-1992,3.5625,3.609375,52800,3.609375,3.5625,2.8459224700927734
18-12-1992,3.578125,3.59375,295200,3.59375,3.59375,2.8708858489990234
21-12-1992,3.546875,3.578125,488000,3.578125,3.546875,2.8334410190582275
22-12-1992,3.53125,3.5625,960800,3.5625,3.546875,2.8334410190582275
23-12-1992,3.515625,3.546875,1008000,3.546875,3.515625,2.8084769248962402
24-12-1992,3.53125,3.546875,655200,3.59375,3.59375,2.8708858489990234
28-12-1992,3.53125,3.578125,97600,3.578125,3.546875,2.8334410190582275
29-12-1992,3.53125,3.546875,596000,3.59375,3.5625,2.8459224700927734
30-12-1992,3.546875,3.578125,639200,3.578125,3.546875,2.8334410190582275
31-12-1992,3.5625,3.5625,376000,3.6875,3.671875,2.933298110961914
04-01-1993,3.609375,3.6875,597600,3.71875,3.609375,2.883368968963623
05-01-1993,3.578125,3.609375,715200,3.6875,3.6875,2.945780038833618
06-01-1993,3.59375,3.6875,928800,3.6875,3.609375,2.883368968963623
07-01-1993,3.5625,3.609375,333600,3.609375,3.578125,2.858405828475952
08-01-1993,3.46875,3.578125,1617600,3.578125,3.46875,2.7710299491882324
11-01-1993,3.375,3.484375,410400,3.484375,3.390625,2.7144885063171387
12-01-1993,3.359375,3.390625,269600,3.40625,3.40625,2.7269980907440186
13-01-1993,3.359375,3.40625,826400,3.484375,3.46875,2.7770347595214844
14-01-1993,3.34375,3.4375,619200,3.453125,3.34375,2.6769611835479736
15-01-1993,3.359375,3.375,1232800,3.421875,3.390625,2.7144885063171387
18-01-1993,3.359375,3.390625,460000,3.390625,3.375,2.701979398727417
19-01-1993,3.359375,3.359375,1157600,3.484375,3.453125,2.764525890350342
20-01-1993,3.4375,3.453125,132800,3.484375,3.46875,2.7770347595214844
21-01-1993,3.4375,3.4375,272800,3.5,3.5,2.8020520210266113
22-01-1993,3.5,3.515625,540800,3.59375,3.59375,2.8771069049835205
25-01-1993,3.578125,3.578125,969600,3.703125,3.6875,2.9521632194519043
26-01-1993,3.78125,3.8125,1224000,3.875,3.78125,3.027217388153076
27-01-1993,3.703125,3.734375,636000,3.765625,3.75,3.00219988822937
28-01-1993,3.75,3.765625,773600,3.90625,3.90625,3.1272904872894287
29-01-1993,3.890625,3.90625,492800,4.0,3.96875,3.177327871322632
01-02-1993,4.0,4.0,1876800,4.078125,4.0625,3.2523820400238037
02-02-1993,4.046875,4.046875,1044000,4.09375,4.09375,3.2774014472961426
03-02-1993,4.09375,4.09375,1448000,4.359375,4.296875,3.4400198459625244
04-02-1993,4.328125,4.328125,1330400,4.4375,4.4375,3.5526041984558105
05-02-1993,4.4375,4.4375,1606400,4.515625,4.5,3.602639675140381
08-02-1993,4.46875,4.5,1975200,4.5,4.5,3.602639675140381
09-02-1993,4.40625,4.5,756000,4.5,4.421875,3.5400922298431396
10-02-1993,4.359375,4.421875,800000,4.453125,4.375,3.502566337585449
11-02-1993,4.359375,4.359375,971200,4.5,4.484375,3.5901293754577637
12-02-1993,4.46875,4.484375,932000,4.484375,4.484375,3.5901293754577637
16-02-1993,4.34375,4.46875,292800,4.46875,4.34375,3.4775476455688477
17-02-1993,4.34375,4.359375,632800,4.40625,4.390625,3.5150749683380127
18-02-1993,4.421875,4.421875,604800,4.484375,4.4375,3.5526041984558105
19-02-1993,4.421875,4.4375,3408800,4.515625,4.5,3.602639675140381
22-02-1993,4.5,4.5,1140000,4.609375,4.5625,3.6526763439178467
23-02-1993,4.5,4.59375,664000,4.59375,4.546875,3.6401665210723877
24-02-1993,4.46875,4.515625,499200,4.515625,4.484375,3.5901293754577637
25-02-1993,4.359375,4.484375,259200,4.484375,4.359375,3.4900567531585693
26-02-1993,4.359375,4.390625,128000,4.421875,4.40625,3.5275847911834717
01-03-1993,4.421875,4.4375,1396000,4.53125,4.4375,3.5526041984558105
02-03-1993,4.4375,4.46875,332800,4.484375,4.453125,3.5651121139526367
03-03-1993,4.46875,4.46875,4088800,4.84375,4.78125,3.8278050422668457
04-03-1993,4.640625,4.75,913600,4.78125,4.734375,3.790276527404785
05-03-1993,4.6875,4.71875,335200,4.734375,4.6875,3.7527477741241455
08-03-1993,4.703125,4.703125,472000,4.796875,4.78125,3.8278050422668457
09-03-1993,4.75,4.796875,324000,4.796875,4.78125,3.8278050422668457
10-03-1993,4.734375,4.78125,199200,4.8125,4.8125,3.8528215885162354
11-03-1993,4.796875,4.8125,213600,4.921875,4.890625,3.9153685569763184
12-03-1993,4.796875,4.921875,702400,4.921875,4.84375,3.877842426300049
15-03-1993,4.84375,4.84375,209600,4.875,4.875,3.9028618335723877
16-03-1993,4.84375,4.859375,316800,4.875,4.859375,3.890350103378296
17-03-1993,4.859375,4.875,136800,4.984375,4.984375,3.9904234409332275
18-03-1993,4.921875,4.96875,444000,5.0,5.0,4.002931594848633
19-03-1993,4.96875,4.984375,300800,5.0,4.96875,3.977914571762085
22-03-1993,4.96875,4.984375,640800,5.0,4.984375,3.9904234409332275
23-03-1993,4.96875,5.015625,100800,5.015625,4.96875,3.977914571762085
24-03-1993,4.96875,4.96875,574400,5.078125,4.96875,3.977914571762085
25-03-1993,4.84375,4.90625,1020000,4.921875,4.84375,3.877842426300049
26-03-1993,4.8125,4.84375,753600,4.921875,4.90625,3.9278788566589355
29-03-1993,4.921875,4.921875,589600,4.984375,4.984375,3.9904234409332275
30-03-1993,5.0,5.0,663200,5.03125,5.03125,4.027950763702393
31-03-1993,4.96875,5.03125,558400,5.03125,5.015625,4.015440940856934
01-04-1993,4.984375,5.03125,537600,5.03125,5.0,4.002931594848633
02-04-1993,4.859375,4.953125,240800,4.953125,4.890625,3.9153685569763184
05-04-1993,4.875,4.90625,292800,4.90625,4.90625,3.9278788566589355
06-04-1993,4.875,4.90625,604800,4.90625,4.875,3.9028618335723877
07-04-1993,4.8125,4.84375,860000,4.875,4.875,3.9028618335723877
08-04-1993,4.859375,4.859375,24000,4.875,4.875,3.9088735580444336
12-04-1993,4.859375,4.859375,325600,4.96875,4.96875,3.9840447902679443
13-04-1993,4.84375,4.96875,1076800,5.03125,4.875,3.9088735580444336
14-04-1993,4.84375,4.890625,447200,4.890625,4.84375,3.883816719055176
15-04-1993,4.8125,4.875,231200,4.921875,4.8125,3.8587594032287598
16-04-1993,4.796875,4.828125,356800,4.84375,4.84375,3.883816719055176
19-04-1993,4.828125,4.828125,173600,4.890625,4.875,3.9088735580444336
20-04-1993,4.90625,4.90625,1133600,5.0625,4.984375,3.996572732925415
21-04-1993,4.875,5.015625,185600,5.015625,4.875,3.9088735580444336
22-04-1993,4.671875,4.84375,335200,4.84375,4.671875,3.746001720428467
23-04-1993,4.46875,4.671875,786400,4.671875,4.5,3.608189582824707
26-04-1993,4.515625,4.53125,367200,4.640625,4.625,3.708418130874634
27-04-1993,4.625,4.65625,108000,4.65625,4.640625,3.720947265625
28-04-1993,4.625,4.625,189600,4.640625,4.640625,3.720947265625
29-04-1993,4.625,4.65625,383200,4.75,4.75,3.8086469173431396
30-04-1993,4.75,4.75,779200,4.96875,4.921875,3.9464595317840576
03-05-1993,4.953125,4.953125,249600,4.984375,4.953125,3.9715166091918945
04-05-1993,4.90625,4.921875,1332800,4.953125,4.921875,3.9464595317840576
05-05-1993,4.921875,4.921875,65600,4.9375,4.921875,3.9464595317840576
06-05-1993,4.921875,4.921875,664800,5.0,4.9375,3.9589874744415283
07-05-1993,4.90625,4.921875,186400,4.96875,4.921875,3.9464595317840576
10-05-1993,4.8125,4.9375,828000,4.9375,4.8125,3.8587594032287598
11-05-1993,4.78125,4.78125,1120800,4.953125,4.9375,3.9589874744415283
12-05-1993,4.90625,4.9375,852000,4.984375,4.953125,3.9715166091918945
13-05-1993,4.90625,4.90625,702400,5.09375,5.0625,4.0592145919799805
14-05-1993,5.0625,5.0625,931200,5.265625,5.171875,4.14691162109375
17-05-1993,5.15625,5.171875,390400,5.203125,5.203125,4.171970844268799
18-05-1993,5.203125,5.203125,340800,5.328125,5.296875,4.247142314910889
19-05-1993,5.1875,5.3125,412800,5.3125,5.234375,4.197027683258057
20-05-1993,5.21875,5.21875,216000,5.25,5.234375,4.197027683258057
21-05-1993,5.203125,5.234375,400000,5.234375,5.21875,4.184499740600586
24-05-1993,5.21875,5.25,496000,5.25,5.234375,4.197027683258057
25-05-1993,5.171875,5.1875,400800,5.25,5.1875,4.159442901611328
26-05-1993,5.15625,5.1875,188000,5.203125,5.203125,4.171970844268799
27-05-1993,5.203125,5.203125,511200,5.3125,5.3125,4.259669303894043
28-05-1993,5.28125,5.296875,473600,5.3125,5.3125,4.259669303894043
01-06-1993,5.328125,5.34375,619200,5.4375,5.40625,4.334840297698975
02-06-1993,5.40625,5.40625,522400,5.625,5.5625,4.460123062133789
03-06-1993,5.484375,5.5625,403200,5.5625,5.515625,4.422538757324219
04-06-1993,5.484375,5.5,889600,5.515625,5.5,4.410008430480957
07-06-1993,5.484375,5.5,482400,5.515625,5.5,4.410008430480957
08-06-1993,5.421875,5.484375,277600,5.484375,5.4375,4.3598952293396
09-06-1993,5.40625,5.40625,262400,5.5,5.5,4.410008430480957
10-06-1993,5.4375,5.484375,779200,5.484375,5.4375,4.3598952293396
11-06-1993,5.234375,5.40625,606400,5.40625,5.234375,4.197027683258057
14-06-1993,5.125,5.21875,763200,5.21875,5.125,4.109330654144287
15-06-1993,5.125,5.125,288800,5.15625,5.125,4.109330654144287
16-06-1993,5.140625,5.140625,219200,5.203125,5.203125,4.171970844268799
17-06-1993,5.21875,5.21875,193600,5.328125,5.25,4.209557056427002
18-06-1993,5.265625,5.28125,224800,5.296875,5.265625,4.222084999084473
21-06-1993,5.28125,5.28125,292800,5.359375,5.34375,4.284728050231934
22-06-1993,5.265625,5.34375,1112000,5.34375,5.265625,4.222084999084473
23-06-1993,5.265625,5.265625,2466400,5.296875,5.296875,4.247142314910889
24-06-1993,5.0625,5.296875,637600,5.296875,5.125,4.109330654144287
25-06-1993,5.109375,5.125,36000,5.125,5.125,4.109330654144287
28-06-1993,5.125,5.125,204800,5.140625,5.140625,4.121857643127441
29-06-1993,4.984375,5.109375,648000,5.125,5.046875,4.0466837882995605
30-06-1993,5.03125,5.0625,552000,5.09375,5.09375,4.084271430969238
01-07-1993,5.015625,5.078125,376800,5.078125,5.046875,4.0466837882995605
02-07-1993,5.015625,5.0625,100000,5.0625,5.046875,4.0466837882995605
06-07-1993,5.0,5.046875,437600,5.09375,5.0,4.009098052978516
07-07-1993,4.96875,4.96875,1369600,5.078125,5.078125,4.071742057800293
08-07-1993,5.078125,5.078125,955200,5.1875,5.1875,4.159442901611328
09-07-1993,5.171875,5.171875,1352000,5.25,5.25,4.21565055847168
12-07-1993,5.28125,5.28125,900000,5.34375,5.3125,4.265836238861084
13-07-1993,5.28125,5.3125,100000,5.3125,5.28125,4.240746021270752
14-07-1993,5.28125,5.28125,538400,5.3125,5.28125,4.240746021270752
15-07-1993,5.21875,5.3125,338400,5.3125,5.25,4.21565055847168
16-07-1993,5.234375,5.25,147200,5.265625,5.25,4.21565055847168
19-07-1993,5.25,5.296875,417600,5.296875,5.28125,4.240746021270752
20-07-1993,5.25,5.25,713600,5.3125,5.3125,4.265836238861084
21-07-1993,5.3125,5.3125,395200,5.34375,5.3125,4.265836238861084
22-07-1993,5.28125,5.3125,314400,5.3125,5.296875,4.253292083740234
23-07-1993,5.25,5.296875,341600,5.3125,5.3125,4.265836238861084
26-07-1993,5.296875,5.34375,196000,5.34375,5.296875,4.253292083740234
27-07-1993,5.21875,5.265625,191200,5.28125,5.25,4.21565055847168
28-07-1993,5.234375,5.25,356800,5.296875,5.265625,4.228198051452637
29-07-1993,5.25,5.265625,98400,5.3125,5.296875,4.253292083740234
30-07-1993,5.3125,5.3125,57600,5.328125,5.328125,4.278385162353516
02-08-1993,5.3125,5.328125,1029600,5.46875,5.46875,4.391301155090332
03-08-1993,5.484375,5.484375,356000,5.578125,5.5625,4.466582775115967
04-08-1993,5.546875,5.546875,400000,5.65625,5.625,4.516768932342529
05-08-1993,5.609375,5.609375,56000,5.640625,5.625,4.516768932342529
06-08-1993,5.578125,5.625,348800,5.625,5.59375,4.491673946380615
09-08-1993,5.609375,5.609375,344800,5.6875,5.6875,4.566955089569092
10-08-1993,5.6875,5.6875,632800,5.75,5.75,4.617143154144287
11-08-1993,5.78125,5.78125,784800,6.0,6.0,4.8178863525390625
12-08-1993,5.984375,6.0,1103200,6.21875,6.015625,4.8304338455200195
13-08-1993,5.9375,6.03125,226400,6.03125,5.9375,4.767699241638184
16-08-1993,5.9375,5.9375,448000,5.984375,5.984375,4.805340766906738
17-08-1993,6.0625,6.0625,640000,6.25,6.25,5.018631458282471
18-08-1993,6.234375,6.234375,805600,6.484375,6.421875,5.156642913818359
19-08-1993,6.3125,6.4375,424000,6.46875,6.3125,5.068818092346191
20-08-1993,6.3125,6.3125,914400,6.453125,6.453125,5.181737422943115
23-08-1993,6.453125,6.46875,964800,6.703125,6.703125,5.38248348236084
24-08-1993,6.53125,6.703125,704000,6.703125,6.5625,5.269561767578125
25-08-1993,6.4375,6.5625,753600,6.578125,6.453125,5.181737422943115
26-08-1993,6.25,6.453125,817600,6.453125,6.296875,5.056270599365234
27-08-1993,6.03125,6.28125,627200,6.28125,6.125,4.9182562828063965
30-08-1993,6.109375,6.125,529600,6.25,6.21875,4.9935383796691895
31-08-1993,6.171875,6.234375,888000,6.328125,6.28125,5.043724060058594
01-09-1993,6.28125,6.28125,388800,6.390625,6.375,5.119004726409912
02-09-1993,6.28125,6.375,286400,6.375,6.28125,5.043724060058594
03-09-1993,6.28125,6.28125,135200,6.328125,6.296875,5.056270599365234
07-09-1993,6.125,6.296875,236800,6.328125,6.125,4.9182562828063965
08-09-1993,5.953125,6.125,388800,6.125,5.953125,4.780245304107666
09-09-1993,5.921875,5.953125,533600,5.984375,5.96875,4.792789936065674
10-09-1993,5.953125,5.96875,121600,5.984375,5.984375,4.805340766906738
13-09-1993,5.921875,5.984375,472800,6.03125,5.921875,4.755151271820068
14-09-1993,5.90625,5.953125,633600,5.96875,5.9375,4.767699241638184
15-09-1993,5.921875,5.9375,994400,6.046875,6.0,4.8178863525390625
16-09-1993,6.0,6.0,152800,6.03125,6.0,4.8178863525390625
17-09-1993,5.890625,5.96875,127200,5.96875,5.9375,4.767699241638184
20-09-1993,5.9375,5.9375,248000,5.96875,5.96875,4.792789936065674
21-09-1993,5.96875,5.96875,218400,6.03125,6.015625,4.8304338455200195
22-09-1993,5.96875,6.0,99200,6.03125,5.96875,4.792789936065674
23-09-1993,5.953125,5.984375,232800,5.984375,5.984375,4.805340766906738
24-09-1993,5.953125,5.96875,357600,6.0,5.96875,4.792789936065674
27-09-1993,5.953125,5.953125,441600,6.0,5.984375,4.805340766906738
28-09-1993,5.921875,5.984375,326400,5.984375,5.9375,4.767699241638184
29-09-1993,5.9375,5.9375,1200800,6.453125,6.453125,5.181737422943115
30-09-1993,6.453125,6.453125,755200,6.625,6.625,5.319747447967529
01-10-1993,6.59375,6.59375,599200,6.71875,6.71875,5.395029544830322
04-10-1993,6.640625,6.71875,248000,6.75,6.640625,5.332296848297119
05-10-1993,6.578125,6.65625,122400,6.65625,6.578125,5.282110214233398
06-10-1993,6.5,6.578125,114400,6.578125,6.53125,5.244469165802002
07-10-1993,6.4375,6.5,224000,6.5,6.484375,5.206831455230713
08-10-1993,6.40625,6.484375,245600,6.484375,6.421875,5.162614345550537
11-10-1993,6.25,6.421875,288000,6.421875,6.25,5.024442672729492
12-10-1993,6.125,6.25,272800,6.25,6.125,4.923951148986816
13-10-1993,5.96875,6.078125,826400,6.109375,5.984375,4.810905456542969
14-10-1993,6.0,6.09375,388000,6.125,6.03125,4.848587512969971
15-10-1993,5.828125,6.0,707200,6.0,5.875,4.722977638244629
18-10-1993,5.71875,5.875,719200,5.875,5.75,4.622489929199219
19-10-1993,5.484375,5.75,1467200,5.875,5.828125,4.685293674468994
20-10-1993,5.3125,5.796875,1626400,5.796875,5.3125,4.270776271820068
21-10-1993,5.4375,5.4375,3216000,5.6875,5.5,4.421506881713867
22-10-1993,5.375,5.5,928800,5.5,5.375,4.321020603179932
25-10-1993,5.28125,5.375,901600,5.421875,5.28125,4.245656967163086
26-10-1993,5.0,5.28125,1536800,5.3125,5.03125,4.044677257537842
27-10-1993,5.0625,5.0625,1416000,5.1875,5.1875,4.170289039611816
28-10-1993,5.1875,5.1875,1215200,5.453125,5.453125,4.383828163146973
29-10-1993,5.328125,5.421875,412800,5.46875,5.34375,4.295898914337158
01-11-1993,5.34375,5.359375,379200,5.484375,5.453125,4.383828163146973
02-11-1993,5.453125,5.453125,553600,5.578125,5.5625,4.471755027770996
03-11-1993,5.578125,5.609375,540800,5.671875,5.625,4.521999359130859
04-11-1993,5.625,5.65625,345600,5.734375,5.625,4.521999359130859
05-11-1993,5.53125,5.625,112800,5.625,5.5625,4.471755027770996
08-11-1993,5.46875,5.5625,207200,5.5625,5.46875,4.39638614654541
09-11-1993,5.1875,5.46875,542400,5.46875,5.21875,4.195409774780273
10-11-1993,5.21875,5.25,191200,5.28125,5.265625,4.233094215393066
11-11-1993,5.203125,5.28125,564800,5.40625,5.21875,4.195409774780273
12-11-1993,5.0625,5.203125,1202400,5.203125,5.203125,4.182847499847412
15-11-1993,5.140625,5.203125,675200,5.234375,5.140625,4.132603168487549
16-11-1993,4.875,4.96875,827200,4.984375,4.9375,3.9693076610565186
17-11-1993,4.9375,5.0,1617600,5.203125,5.203125,4.182847499847412
18-11-1993,5.15625,5.203125,463200,5.359375,5.296875,4.2582173347473145
19-11-1993,5.21875,5.25,85600,5.265625,5.265625,4.233094215393066
22-11-1993,5.078125,5.25,173600,5.25,5.078125,4.08236026763916
23-11-1993,5.078125,5.109375,697600,5.21875,5.09375,4.094920635223389
24-11-1993,5.109375,5.109375,556800,5.15625,5.15625,4.145166873931885
26-11-1993,5.03125,5.125,94400,5.125,5.03125,4.044677257537842
29-11-1993,4.828125,4.96875,1270400,4.96875,4.828125,3.8813819885253906
30-11-1993,4.78125,4.84375,457600,4.859375,4.828125,3.8813819885253906
01-12-1993,4.828125,4.859375,316000,4.921875,4.859375,3.9065046310424805
02-12-1993,4.84375,4.84375,429600,4.90625,4.859375,3.9065046310424805
03-12-1993,4.875,4.875,142400,4.90625,4.875,3.9190635681152344
06-12-1993,4.84375,4.875,308800,4.90625,4.890625,3.9316258430480957
07-12-1993,4.859375,4.875,528800,4.953125,4.90625,3.9441874027252197
08-12-1993,4.84375,4.890625,89600,4.890625,4.859375,3.9065046310424805
09-12-1993,4.71875,4.859375,69600,4.859375,4.78125,3.8436970710754395
10-12-1993,4.796875,4.796875,271200,4.84375,4.828125,3.8813819885253906
13-12-1993,4.71875,4.859375,102400,4.859375,4.765625,3.831136465072632
14-12-1993,4.734375,4.796875,620800,4.8125,4.8125,3.86881947517395
15-12-1993,4.71875,4.765625,128000,4.765625,4.734375,3.806013822555542
16-12-1993,4.75,4.75,565600,4.84375,4.78125,3.8436970710754395
17-12-1993,4.734375,4.796875,200800,4.8125,4.75,3.8185789585113525
20-12-1993,4.40625,4.71875,927200,4.71875,4.515625,3.6301581859588623
21-12-1993,4.265625,4.546875,880000,4.546875,4.4375,3.5673556327819824
22-12-1993,4.40625,4.453125,676000,4.75,4.734375,3.806013822555542
23-12-1993,4.703125,4.703125,176000,4.796875,4.75,3.8185789585113525
27-12-1993,4.6875,4.6875,1060000,4.890625,4.859375,3.9065046310424805
28-12-1993,4.8125,4.890625,629600,4.921875,4.8125,3.86881947517395
29-12-1993,4.828125,4.828125,648000,4.890625,4.859375,3.9065046310424805
30-12-1993,4.828125,4.84375,270400,4.859375,4.859375,3.9065046310424805
31-12-1993,4.828125,4.859375,112800,4.875,4.875,3.9190635681152344
03-01-1994,4.828125,4.875,332000,4.875,4.875,3.9190635681152344
04-01-1994,4.84375,4.84375,202400,4.890625,4.890625,3.9316258430480957
05-01-1994,4.96875,4.96875,800000,5.25,5.203125,4.182847499847412
06-01-1994,5.234375,5.234375,999200,5.484375,5.453125,4.383828163146973
07-01-1994,5.40625,5.46875,704800,5.46875,5.4375,4.37126350402832
10-01-1994,5.421875,5.421875,573600,5.640625,5.640625,4.540823459625244
11-01-1994,5.453125,5.59375,1028800,5.59375,5.5,4.427615642547607
12-01-1994,5.390625,5.5,296000,5.53125,5.40625,4.352147102355957
13-01-1994,5.3125,5.40625,10779200,5.421875,5.3125,4.276675701141357
14-01-1994,5.15625,5.28125,1295200,5.328125,5.15625,4.150888442993164
17-01-1994,5.21875,5.25,1098400,5.3125,5.296875,4.264101505279541
18-01-1994,5.3125,5.3125,851200,5.4375,5.4375,4.37730073928833
19-01-1994,5.46875,5.46875,1249600,5.609375,5.515625,4.440194606781006
20-01-1994,5.359375,5.515625,487200,5.5625,5.359375,4.314411640167236
21-01-1994,5.34375,5.390625,354400,5.421875,5.375,4.326990604400635
24-01-1994,5.3125,5.390625,408800,5.40625,5.3125,4.276675701141357
25-01-1994,5.296875,5.3125,284000,5.328125,5.3125,4.276675701141357
26-01-1994,5.265625,5.3125,873600,5.40625,5.375,4.326990604400635
27-01-1994,5.375,5.375,1322400,5.5625,5.546875,4.465351104736328
28-01-1994,5.484375,5.5,303200,5.515625,5.5,4.427615642547607
31-01-1994,5.515625,5.53125,787200,5.671875,5.515625,4.440194606781006
01-02-1994,5.546875,5.546875,700800,5.625,5.609375,4.515666484832764
02-02-1994,5.578125,5.578125,999200,5.9375,5.765625,4.64145040512085
03-02-1994,5.734375,5.8125,155200,5.8125,5.75,4.628871440887451
04-02-1994,5.703125,5.78125,1171200,5.828125,5.71875,4.603715896606445
07-02-1994,5.609375,5.671875,363200,5.671875,5.625,4.528244495391846
08-02-1994,5.59375,5.625,355200,5.75,5.734375,4.616295337677002
09-02-1994,5.59375,5.734375,272800,5.734375,5.65625,4.553401947021484
10-02-1994,5.5,5.65625,944800,5.65625,5.5,4.427615642547607
11-02-1994,5.5,5.53125,212800,5.71875,5.6875,4.578557014465332
14-02-1994,5.40625,5.6875,335200,5.6875,5.5,4.427615642547607
15-02-1994,5.46875,5.46875,137600,5.53125,5.5,4.427615642547607
16-02-1994,5.375,5.46875,541600,5.484375,5.375,4.326990604400635
17-02-1994,5.34375,5.390625,538400,5.46875,5.34375,4.3018341064453125
18-02-1994,5.328125,5.375,437600,5.390625,5.34375,4.3018341064453125
22-02-1994,5.359375,5.375,83200,5.40625,5.375,4.326990604400635
23-02-1994,5.34375,5.34375,152000,5.4375,5.421875,4.364725589752197
24-02-1994,5.375,5.421875,108800,5.4375,5.4375,4.37730073928833
25-02-1994,5.46875,5.5,848800,5.5625,5.46875,4.402458667755127
28-02-1994,5.375,5.46875,57600,5.46875,5.375,4.326990604400635
01-03-1994,5.34375,5.40625,180000,5.40625,5.375,4.326990604400635
02-03-1994,5.28125,5.34375,310400,5.34375,5.3125,4.276675701141357
03-03-1994,5.296875,5.328125,92800,5.34375,5.3125,4.276675701141357
04-03-1994,5.296875,5.296875,196800,5.40625,5.390625,4.339568138122559
07-03-1994,5.34375,5.40625,268800,5.40625,5.34375,4.3018341064453125
08-03-1994,5.234375,5.3125,516800,5.328125,5.234375,4.213783264160156
09-03-1994,4.96875,5.203125,609600,5.203125,5.03125,4.050264358520508
10-03-1994,4.921875,5.015625,894400,5.046875,4.9375,3.9747915267944336
11-03-1994,4.921875,4.953125,410400,5.03125,5.015625,4.037683010101318
14-03-1994,5.015625,5.015625,308800,5.1875,5.171875,4.1634674072265625
15-03-1994,5.21875,5.21875,446400,5.328125,5.28125,4.251519680023193
16-03-1994,5.25,5.265625,458400,5.296875,5.28125,4.251519680023193
17-03-1994,5.265625,5.265625,423200,5.515625,5.484375,4.415038108825684
18-03-1994,5.5,5.53125,879200,5.6875,5.6875,4.578557014465332
21-03-1994,5.671875,5.71875,813600,5.734375,5.71875,4.603715896606445
22-03-1994,5.6875,5.6875,1078400,5.8125,5.796875,4.666608810424805
23-03-1994,5.625,5.6875,722400,5.6875,5.671875,4.565978050231934
24-03-1994,5.5625,5.59375,674400,5.65625,5.625,4.528244495391846
25-03-1994,5.609375,5.609375,510400,5.671875,5.625,4.528244495391846
28-03-1994,5.4375,5.609375,1590400,5.609375,5.4375,4.37730073928833
29-03-1994,5.25,5.421875,617600,5.421875,5.25,4.226363182067871
30-03-1994,5.109375,5.234375,567200,5.328125,5.3125,4.276675701141357
31-03-1994,5.265625,5.3125,148800,5.34375,5.34375,4.3018341064453125
04-04-1994,5.25,5.3125,445600,5.3125,5.265625,4.238941192626953
05-04-1994,5.234375,5.28125,940000,5.328125,5.25,4.226363182067871
06-04-1994,5.21875,5.3125,240000,5.375,5.375,4.326990604400635
07-04-1994,5.34375,5.375,574400,5.4375,5.34375,4.3018341064453125
08-04-1994,5.3125,5.328125,169600,5.34375,5.34375,4.3018341064453125
11-04-1994,5.265625,5.3125,698400,5.3125,5.296875,4.2700910568237305
12-04-1994,5.3125,5.3125,1101600,5.40625,5.375,4.333071231842041
13-04-1994,5.359375,5.375,604000,5.4375,5.4375,4.383453845977783
14-04-1994,5.359375,5.390625,1280800,5.53125,5.53125,4.459029674530029
15-04-1994,5.46875,5.53125,826400,5.875,5.875,4.736146926879883
18-04-1994,5.6875,5.8125,1331200,5.8125,5.796875,4.673165321350098
19-04-1994,5.734375,5.78125,704000,5.8125,5.734375,4.622779846191406
20-04-1994,5.703125,5.71875,727200,5.71875,5.71875,4.610187530517578
21-04-1994,5.703125,5.703125,480000,5.765625,5.75,4.635375499725342
22-04-1994,5.71875,5.734375,332000,5.796875,5.765625,4.647974967956543
25-04-1994,5.734375,5.765625,498400,5.9375,5.9375,4.786530494689941
26-04-1994,5.9375,5.9375,1096000,5.96875,5.96875,4.811722278594971
28-04-1994,5.9375,5.953125,856800,6.015625,5.953125,4.799129962921143
29-04-1994,5.890625,5.9375,535200,5.9375,5.9375,4.786530494689941
02-05-1994,5.890625,5.90625,652000,5.953125,5.953125,4.799129962921143
03-05-1994,5.859375,5.9375,560800,5.9375,5.875,4.736146926879883
04-05-1994,5.875,5.875,358400,5.9375,5.9375,4.786530494689941
05-05-1994,5.921875,5.96875,66400,5.96875,5.921875,4.773935317993164
06-05-1994,5.921875,5.921875,343200,6.125,6.09375,4.912491798400879
09-05-1994,6.03125,6.109375,453600,6.109375,6.078125,4.899897575378418
10-05-1994,6.09375,6.140625,632800,6.140625,6.09375,4.912491798400879
11-05-1994,6.03125,6.09375,187200,6.109375,6.03125,4.862109661102295
12-05-1994,6.03125,6.046875,806400,6.15625,6.140625,4.950281143188477
13-05-1994,6.109375,6.109375,257600,6.125,6.125,4.937684059143066
16-05-1994,6.109375,6.140625,293600,6.140625,6.109375,4.9250898361206055
17-05-1994,5.890625,6.09375,1044000,6.09375,5.953125,4.799129962921143
18-05-1994,5.90625,5.96875,1417600,5.984375,5.96875,4.811722278594971
19-05-1994,5.890625,5.984375,205600,5.984375,5.890625,4.74874210357666
20-05-1994,5.8125,5.90625,309600,5.90625,5.828125,4.6983561515808105
23-05-1994,5.765625,5.796875,208800,5.8125,5.765625,4.647974967956543
24-05-1994,5.703125,5.75,287200,5.75,5.703125,4.5975871086120605
25-05-1994,5.65625,5.71875,179200,5.71875,5.65625,4.559800148010254
26-05-1994,5.515625,5.59375,840800,5.625,5.546875,4.471627712249756
27-05-1994,5.53125,5.5625,70400,5.59375,5.578125,4.49682092666626
31-05-1994,5.5,5.546875,752800,5.578125,5.5,4.433839797973633
01-06-1994,5.5,5.5,480800,5.546875,5.515625,4.446436882019043
02-06-1994,5.46875,5.5,600000,5.53125,5.46875,4.408646583557129
03-06-1994,5.34375,5.453125,136800,5.453125,5.421875,4.370859622955322
06-06-1994,5.453125,5.5,132800,5.5,5.46875,4.408646583557129
07-06-1994,5.46875,5.46875,863200,5.578125,5.5625,4.484225273132324
08-06-1994,5.4375,5.5625,276800,5.5625,5.46875,4.408646583557129
09-06-1994,5.375,5.4375,304800,5.4375,5.375,4.333071231842041
10-06-1994,5.375,5.375,165600,5.578125,5.578125,4.49682092666626
13-06-1994,5.578125,5.578125,736800,5.703125,5.6875,4.584993362426758
14-06-1994,5.703125,5.703125,476000,5.75,5.75,4.635375499725342
15-06-1994,5.71875,5.75,292000,5.78125,5.734375,4.622779846191406
16-06-1994,5.71875,5.71875,132000,5.78125,5.78125,4.6605682373046875
17-06-1994,5.75,5.75,384000,5.90625,5.90625,4.761340141296387
20-06-1994,5.75,5.9375,174800,5.9375,5.84375,4.7109527587890625
21-06-1994,5.78125,5.78125,166400,5.90625,5.90625,4.761340141296387
22-06-1994,5.875,5.96875,52800,5.96875,5.90625,4.761340141296387
23-06-1994,5.75,5.96875,197200,5.96875,5.75,4.635375499725342
24-06-1994,5.59375,5.75,143200,5.75,5.71875,4.610187530517578
27-06-1994,5.625,5.6875,136800,5.75,5.71875,4.610187530517578
28-06-1994,5.59375,5.65625,190800,5.71875,5.71875,4.610187530517578
29-06-1994,5.65625,5.71875,94800,5.75,5.75,4.635375499725342
30-06-1994,5.59375,5.6875,440400,5.75,5.75,4.635375499725342
01-07-1994,5.625,5.75,150400,5.75,5.65625,4.559800148010254
05-07-1994,5.5,5.6875,72400,5.6875,5.5,4.433839797973633
06-07-1994,5.46875,5.5,182800,5.6875,5.6875,4.584993362426758
07-07-1994,5.59375,5.71875,36000,5.71875,5.59375,4.509416103363037
08-07-1994,5.5,5.5625,24000,5.59375,5.5,4.433839797973633
11-07-1994,5.5,5.53125,51600,5.5625,5.5625,4.4903483390808105
12-07-1994,5.5,5.5625,98800,5.59375,5.5625,4.4903483390808105
13-07-1994,5.40625,5.59375,277200,5.65625,5.5,4.439894676208496
14-07-1994,5.4375,5.53125,72800,5.53125,5.4375,4.389439105987549
15-07-1994,5.34375,5.40625,68800,5.40625,5.375,4.338988304138184
18-07-1994,5.3125,5.4375,261600,5.46875,5.46875,4.414665699005127
19-07-1994,5.375,5.4375,143200,5.4375,5.375,4.338988304138184
20-07-1994,5.3125,5.40625,31600,5.40625,5.3125,4.288533687591553
21-07-1994,5.1875,5.1875,230800,5.34375,5.34375,4.313760757446289
22-07-1994,5.1875,5.3125,37600,5.3125,5.21875,4.212852478027344
25-07-1994,5.03125,5.25,187200,5.25,5.03125,4.061493873596191
26-07-1994,4.9375,5.0625,230000,5.0625,4.96875,4.011040210723877
27-07-1994,4.90625,5.0,551200,5.03125,4.9375,3.9858133792877197
28-07-1994,4.9375,4.9375,342800,5.0,5.0,4.036266326904297
29-07-1994,4.96875,5.0,209600,5.0,4.96875,4.011040210723877
01-08-1994,4.9375,4.9375,620000,5.0,5.0,4.036266326904297
02-08-1994,4.9375,4.96875,216400,5.0,5.0,4.036266326904297
03-08-1994,4.90625,4.96875,430800,5.03125,5.0,4.036266326904297
04-08-1994,4.9375,4.96875,156400,5.0625,5.0,4.036266326904297
05-08-1994,4.78125,4.96875,233200,5.0,4.78125,3.859679698944092
08-08-1994,4.8125,4.84375,731600,4.90625,4.84375,3.9101340770721436
09-08-1994,4.78125,4.8125,1479200,5.0,5.0,4.036266326904297
10-08-1994,5.03125,5.0625,600000,5.125,5.0625,4.086719989776611
11-08-1994,4.96875,5.03125,326800,5.09375,4.96875,4.011040210723877
12-08-1994,4.9375,4.96875,558400,5.03125,5.0,4.036266326904297
15-08-1994,4.96875,5.0,71600,5.0625,4.96875,4.011040210723877
16-08-1994,4.9375,5.0,300800,5.0,4.9375,3.9858133792877197
17-08-1994,4.90625,4.9375,148800,5.0,4.96875,4.011040210723877
18-08-1994,4.90625,4.96875,228400,4.96875,4.9375,3.9858133792877197
19-08-1994,4.90625,4.9375,330400,4.953125,4.90625,3.9605872631073
22-08-1994,4.8125,4.9375,137200,4.9375,4.8125,3.8849053382873535
23-08-1994,4.78125,4.875,459200,4.90625,4.84375,3.9101340770721436
24-08-1994,4.875,4.875,956000,5.03125,4.9375,3.9858133792877197
25-08-1994,4.75,4.96875,773200,4.96875,4.78125,3.859679698944092
26-08-1994,4.65625,4.8125,1071600,4.875,4.8125,3.8849053382873535
29-08-1994,4.625,4.875,1677600,4.875,4.71875,3.8092262744903564
30-08-1994,4.6875,4.71875,976800,4.8125,4.8125,3.8849053382873535
31-08-1994,4.75,4.8125,1103600,4.90625,4.8125,3.8849053382873535
01-09-1994,4.78125,4.78125,967600,4.875,4.84375,3.9101340770721436
02-09-1994,4.84375,4.90625,250400,4.9375,4.9375,3.9858133792877197
06-09-1994,4.875,4.90625,397200,5.03125,5.03125,4.061493873596191
07-09-1994,5.0625,5.0625,1347600,5.25,5.1875,4.187628746032715
08-09-1994,5.125,5.125,1925200,5.4375,5.4375,4.389439105987549
09-09-1994,5.125,5.375,1384800,5.375,5.125,4.1371750831604
12-09-1994,5.125,5.1875,572800,5.21875,5.125,4.1371750831604
13-09-1994,5.125,5.15625,136400,5.1875,5.15625,4.16240119934082
14-09-1994,5.125,5.125,378800,5.25,5.25,4.238081455230713
15-09-1994,5.21875,5.25,1040800,5.3125,5.25,4.238081455230713
16-09-1994,5.25,5.28125,429600,5.375,5.375,4.338988304138184
19-09-1994,5.25,5.375,374400,5.375,5.25,4.238081455230713
20-09-1994,5.0,5.1875,248400,5.1875,5.125,4.1371750831604
21-09-1994,4.9375,5.125,303200,5.125,5.0,4.036266326904297
22-09-1994,5.0,5.0625,68000,5.0625,5.0,4.036266326904297
23-09-1994,5.0625,5.0625,456000,5.21875,5.1875,4.187628746032715
26-09-1994,5.15625,5.15625,168800,5.25,5.25,4.238081455230713
27-09-1994,5.15625,5.21875,271200,5.21875,5.1875,4.187628746032715
28-09-1994,5.15625,5.1875,45600,5.21875,5.15625,4.16240119934082
29-09-1994,5.125,5.1875,135200,5.1875,5.15625,4.16240119934082
30-09-1994,5.0625,5.1875,63600,5.1875,5.09375,4.1119465827941895
03-10-1994,5.0625,5.09375,100000,5.125,5.0625,4.086719989776611
04-10-1994,4.96875,5.09375,256800,5.09375,4.96875,4.011040210723877
05-10-1994,4.96875,4.96875,100400,5.03125,5.03125,4.061493873596191
06-10-1994,5.03125,5.0625,187200,5.125,5.0625,4.086719989776611
07-10-1994,5.09375,5.09375,220000,5.3125,5.28125,4.269632339477539
10-10-1994,5.28125,5.28125,344000,5.375,5.3125,4.294897079467773
11-10-1994,5.3125,5.3125,328800,5.375,5.3125,4.294897079467773
12-10-1994,5.15625,5.25,155600,5.25,5.15625,4.168576717376709
13-10-1994,5.1875,5.21875,285600,5.28125,5.25,4.2443671226501465
14-10-1994,5.1875,5.25,151200,5.25,5.25,4.2443671226501465
17-10-1994,5.25,5.3125,88000,5.3125,5.25,4.2443671226501465
18-10-1994,5.25,5.25,153200,5.375,5.375,4.345424652099609
19-10-1994,5.34375,5.34375,236000,5.4375,5.34375,4.320162296295166
20-10-1994,5.21875,5.3125,174000,5.34375,5.25,4.2443671226501465
21-10-1994,5.1875,5.1875,66800,5.25,5.21875,4.219104766845703
24-10-1994,5.1875,5.25,72800,5.34375,5.3125,4.294897079467773
25-10-1994,5.1875,5.3125,243200,5.34375,5.25,4.2443671226501465
26-10-1994,5.21875,5.25,512800,5.40625,5.40625,4.370689392089844
27-10-1994,5.375,5.375,1548800,5.625,5.53125,4.471746444702148
28-10-1994,5.46875,5.5,638000,5.6875,5.65625,4.572801113128662
31-10-1994,5.5,5.625,102000,5.625,5.53125,4.471746444702148
01-11-1994,5.46875,5.53125,71200,5.5625,5.5625,4.497008800506592
02-11-1994,5.4375,5.53125,349600,5.53125,5.46875,4.421215534210205
03-11-1994,5.46875,5.5,54000,5.5625,5.53125,4.471746444702148
04-11-1994,5.46875,5.46875,237600,5.53125,5.46875,4.421215534210205
07-11-1994,5.4375,5.5,145600,5.5,5.4375,4.395954132080078
08-11-1994,5.375,5.40625,126800,5.4375,5.40625,4.370689392089844
09-11-1994,5.4375,5.4375,328400,5.46875,5.4375,4.395954132080078
10-11-1994,5.4375,5.4375,60800,5.46875,5.4375,4.395954132080078
11-11-1994,5.34375,5.4375,80800,5.46875,5.34375,4.320162296295166
14-11-1994,5.21875,5.3125,125600,5.3125,5.25,4.2443671226501465
15-11-1994,5.21875,5.25,166400,5.28125,5.28125,4.269632339477539
16-11-1994,5.15625,5.21875,154800,5.25,5.15625,4.168576717376709
17-11-1994,4.90625,5.09375,990400,5.09375,4.96875,4.016992092132568
18-11-1994,4.625,4.90625,1564800,4.90625,4.78125,3.8654072284698486
21-11-1994,4.71875,4.8125,789600,4.84375,4.75,3.840142011642456
22-11-1994,4.625,4.6875,559600,4.71875,4.6875,3.789613723754883
23-11-1994,4.5,4.71875,952400,4.71875,4.59375,3.7138218879699707
25-11-1994,4.53125,4.5625,45600,4.59375,4.53125,3.663294792175293
28-11-1994,4.46875,4.59375,1295600,4.59375,4.53125,3.663294792175293
29-11-1994,4.46875,4.53125,1277200,4.625,4.59375,3.7138218879699707
30-11-1994,4.53125,4.625,410400,4.625,4.53125,3.663294792175293
01-12-1994,4.5,4.53125,507600,4.65625,4.625,3.739086627960205
02-12-1994,4.625,4.625,588000,4.6875,4.625,3.739086627960205
05-12-1994,4.375,4.59375,1013600,4.65625,4.375,3.5369739532470703
06-12-1994,4.375,4.375,664400,4.4375,4.375,3.5369739532470703
07-12-1994,4.34375,4.375,218400,4.5625,4.5625,3.688558340072632
08-12-1994,4.53125,4.53125,552800,4.8125,4.6875,3.789613723754883
09-12-1994,4.5625,4.625,588400,4.625,4.59375,3.7138218879699707
12-12-1994,4.625,4.625,519200,4.6875,4.65625,3.7643508911132812
13-12-1994,4.65625,4.65625,408000,4.78125,4.75,3.840142011642456
14-12-1994,4.78125,4.78125,529200,4.96875,4.9375,3.9917283058166504
15-12-1994,4.8125,4.96875,116000,4.96875,4.84375,3.91593599319458
16-12-1994,4.8125,4.84375,312800,4.875,4.84375,3.91593599319458
19-12-1994,4.75,4.84375,426800,4.84375,4.8125,3.890671730041504
20-12-1994,4.625,4.75,305200,4.8125,4.65625,3.7643508911132812
21-12-1994,4.59375,4.6875,634400,4.6875,4.625,3.739086627960205
22-12-1994,4.53125,4.65625,284000,4.65625,4.53125,3.663294792175293
23-12-1994,4.53125,4.5625,29600,4.59375,4.5625,3.688558340072632
27-12-1994,4.4375,4.59375,209600,4.59375,4.5,3.638031244277954
28-12-1994,4.5,4.5,228800,4.59375,4.59375,3.7138218879699707
29-12-1994,4.65625,4.65625,221200,4.8125,4.71875,3.8148791790008545
30-12-1994,4.6875,4.71875,150400,4.78125,4.6875,3.789613723754883
03-01-1995,4.65625,4.75,129600,4.78125,4.75,3.840142011642456
04-01-1995,4.6875,4.75,68400,4.8125,4.71875,3.8148791790008545
05-01-1995,4.59375,4.65625,260000,4.6875,4.65625,3.7643508911132812
06-01-1995,4.5,4.6875,404800,4.6875,4.5625,3.688558340072632
09-01-1995,4.46875,4.53125,613600,4.5625,4.46875,3.6187143325805664
10-01-1995,4.3125,4.4375,289600,4.4375,4.3125,3.492185354232788
11-01-1995,4.3125,4.3125,124800,4.40625,4.40625,3.5681042671203613
12-01-1995,4.3125,4.375,374400,4.4375,4.3125,3.492185354232788
13-01-1995,4.28125,4.3125,66800,4.40625,4.375,3.5427966117858887
16-01-1995,4.28125,4.3125,480800,4.328125,4.3125,3.492185354232788
17-01-1995,4.3125,4.3125,437600,4.4375,4.40625,3.5681042671203613
18-01-1995,4.40625,4.40625,606000,4.59375,4.5625,3.6946330070495605
19-01-1995,4.5,4.5625,248000,4.5625,4.5,3.6440200805664062
20-01-1995,4.5,4.53125,76400,4.53125,4.53125,3.669326066970825
23-01-1995,4.375,4.46875,128800,4.5,4.375,3.5427966117858887
24-01-1995,4.375,4.375,345600,4.5625,4.53125,3.669326066970825
25-01-1995,4.46875,4.53125,129600,4.53125,4.5,3.6440200805664062
26-01-1995,4.5,4.5,145200,4.625,4.625,3.74524188041687
27-01-1995,4.5,4.5625,512000,4.59375,4.53125,3.669326066970825
30-01-1995,4.4375,4.53125,193200,4.53125,4.46875,3.6187143325805664
31-01-1995,4.4375,4.4375,186400,4.53125,4.4375,3.5934102535247803
01-02-1995,4.4375,4.4375,46000,4.5,4.46875,3.6187143325805664
02-02-1995,4.4375,4.46875,41600,4.5,4.46875,3.6187143325805664
03-02-1995,4.4375,4.5,243600,4.53125,4.5,3.6440200805664062
06-02-1995,4.5625,4.625,651200,4.8125,4.75,3.846466302871704
07-02-1995,4.6875,4.8125,437200,4.8125,4.6875,3.795851945877075
08-02-1995,4.71875,4.71875,549600,4.8125,4.75,3.846466302871704
09-02-1995,4.6875,4.78125,278800,4.78125,4.6875,3.795851945877075
10-02-1995,4.6875,4.71875,243600,4.78125,4.78125,3.871772050857544
13-02-1995,4.8125,4.8125,264800,4.90625,4.84375,3.92238187789917
14-02-1995,4.75,4.84375,137600,4.84375,4.84375,3.92238187789917
15-02-1995,4.8125,4.84375,277200,4.96875,4.9375,3.9982995986938477
16-02-1995,4.9375,4.9375,477600,5.03125,5.0,4.04891300201416
17-02-1995,5.0,5.0,261200,5.125,5.125,4.150135517120361
21-02-1995,5.09375,5.125,92400,5.125,5.125,4.150135517120361
22-02-1995,5.0625,5.09375,214400,5.125,5.09375,4.124827861785889
23-02-1995,5.0625,5.125,348800,5.15625,5.15625,4.175439834594727
24-02-1995,5.09375,5.15625,281200,5.15625,5.125,4.150135517120361
27-02-1995,5.09375,5.125,381600,5.15625,5.15625,4.175439834594727
28-02-1995,5.15625,5.1875,322400,5.21875,5.21875,4.22605037689209
01-03-1995,5.15625,5.1875,70800,5.1875,5.15625,4.175439834594727
02-03-1995,5.15625,5.15625,218800,5.25,5.25,4.251357078552246
03-03-1995,5.21875,5.25,259600,5.28125,5.25,4.251357078552246
06-03-1995,5.15625,5.25,236400,5.25,5.21875,4.22605037689209
07-03-1995,5.125,5.25,405200,5.25,5.125,4.150135517120361
08-03-1995,5.125,5.15625,442800,5.28125,5.21875,4.22605037689209
09-03-1995,5.1875,5.25,179600,5.28125,5.28125,4.276662826538086
10-03-1995,5.15625,5.25,170400,5.25,5.15625,4.175439834594727
13-03-1995,5.15625,5.1875,100800,5.21875,5.1875,4.200743675231934
14-03-1995,5.1875,5.1875,101600,5.25,5.25,4.251357078552246
15-03-1995,5.25,5.25,317200,5.34375,5.3125,4.301967144012451
16-03-1995,5.28125,5.28125,635600,5.5,5.4375,4.403191089630127
17-03-1995,5.3125,5.40625,492800,5.5,5.4375,4.403191089630127
20-03-1995,5.28125,5.40625,426800,5.5,5.34375,4.327277183532715
21-03-1995,5.25,5.3125,159600,5.3125,5.25,4.251357078552246
22-03-1995,5.28125,5.3125,349200,5.375,5.3125,4.301967144012451
23-03-1995,5.3125,5.34375,279600,5.4375,5.40625,4.3778862953186035
24-03-1995,5.28125,5.40625,696000,5.40625,5.3125,4.301967144012451
27-03-1995,5.3125,5.34375,314400,5.5,5.5,4.453801155090332
28-03-1995,5.5,5.5,268800,5.5625,5.5625,4.5044145584106445
29-03-1995,5.5625,5.5625,458000,5.6875,5.625,4.555026054382324
30-03-1995,5.65625,5.65625,414400,5.875,5.875,4.757470607757568
31-03-1995,5.90625,5.90625,1336800,6.21875,6.15625,4.985221862792969
03-04-1995,5.96875,6.15625,1253600,6.15625,5.96875,4.8333892822265625
04-04-1995,5.84375,5.96875,666000,5.96875,5.875,4.757470607757568
05-04-1995,5.84375,5.875,1044800,5.96875,5.90625,4.782777309417725
06-04-1995,5.71875,5.875,704000,5.875,5.71875,4.630941390991211
07-04-1995,5.625,5.6875,227600,5.75,5.625,4.561007022857666
10-04-1995,5.59375,5.59375,525600,5.75,5.75,4.6623640060424805
11-04-1995,5.6875,5.78125,668400,5.78125,5.75,4.6623640060424805
12-04-1995,5.71875,5.75,110400,5.78125,5.78125,4.687702178955078
13-04-1995,5.75,5.8125,191600,5.875,5.75,4.6623640060424805
17-04-1995,5.75,5.78125,133200,5.8125,5.75,4.6623640060424805
18-04-1995,5.5625,5.75,805200,5.75,5.5625,4.5103302001953125
19-04-1995,5.53125,5.59375,182400,5.625,5.625,4.561007022857666
20-04-1995,5.625,5.625,356000,5.78125,5.78125,4.687702178955078
21-04-1995,5.8125,5.8125,1894000,6.1875,6.09375,4.941091537475586
24-04-1995,5.9375,6.125,940800,6.1875,5.9375,4.814395904541016
25-04-1995,5.84375,5.875,103200,5.90625,5.84375,4.738379001617432
26-04-1995,5.71875,5.875,144000,5.875,5.78125,4.687702178955078
27-04-1995,5.65625,5.78125,390800,5.78125,5.65625,4.5863447189331055
28-04-1995,5.6875,5.71875,266400,5.71875,5.71875,4.63702392578125
01-05-1995,5.71875,5.75,529200,5.78125,5.75,4.6623640060424805
02-05-1995,5.6875,5.75,406400,5.75,5.75,4.6623640060424805
03-05-1995,5.75,5.75,199600,5.8125,5.75,4.6623640060424805
04-05-1995,5.6875,5.75,215200,5.75,5.71875,4.63702392578125
05-05-1995,5.65625,5.6875,289200,5.75,5.65625,4.5863447189331055
08-05-1995,5.625,5.65625,224000,5.6875,5.65625,4.5863447189331055
09-05-1995,5.625,5.65625,509200,5.8125,5.8125,4.713040828704834
10-05-1995,5.78125,5.78125,706400,5.9375,5.9375,4.814395904541016
11-05-1995,5.78125,5.90625,222000,5.90625,5.8125,4.713040828704834
12-05-1995,5.75,5.8125,38800,5.8125,5.78125,4.687702178955078
15-05-1995,5.78125,5.8125,279600,5.875,5.875,4.763719081878662
16-05-1995,5.84375,5.90625,43200,5.9375,5.84375,4.738379001617432
17-05-1995,5.78125,5.84375,295600,5.84375,5.8125,4.713040828704834
18-05-1995,5.65625,5.8125,107600,5.8125,5.71875,4.63702392578125
19-05-1995,5.71875,5.71875,130800,5.75,5.75,4.6623640060424805
22-05-1995,5.6875,5.75,64000,5.75,5.6875,4.611685276031494
23-05-1995,5.71875,5.71875,340800,5.90625,5.875,4.763719081878662
24-05-1995,5.84375,5.875,449200,6.09375,6.09375,4.941091537475586
25-05-1995,6.0,6.03125,798400,6.125,6.0625,4.91575288772583
26-05-1995,5.9375,6.0625,177600,6.0625,5.96875,4.83973503112793
30-05-1995,5.9375,5.9375,303600,6.03125,6.03125,4.890414714813232
31-05-1995,6.0,6.0625,254800,6.0625,6.0625,4.91575288772583
01-06-1995,6.03125,6.0625,26000,6.09375,6.03125,4.890414714813232
02-06-1995,5.9375,6.0625,201600,6.09375,5.96875,4.83973503112793
05-06-1995,5.96875,6.0,137600,6.0,6.0,4.86507511138916
06-06-1995,5.875,6.0,53200,6.0,5.90625,4.789057731628418
07-06-1995,5.8125,5.9375,307600,5.9375,5.8125,4.713040828704834
08-06-1995,5.75,5.8125,242000,5.8125,5.78125,4.687702178955078
09-06-1995,5.75,5.78125,652000,5.8125,5.78125,4.687702178955078
12-06-1995,5.71875,5.78125,188000,5.78125,5.75,4.6623640060424805
13-06-1995,5.6875,5.6875,119200,5.71875,5.71875,4.63702392578125
14-06-1995,5.71875,5.78125,300400,5.78125,5.78125,4.687702178955078
15-06-1995,5.71875,5.75,186800,5.8125,5.8125,4.713040828704834
16-06-1995,5.6875,5.8125,190000,5.8125,5.6875,4.611685276031494
19-06-1995,5.59375,5.65625,399600,5.71875,5.6875,4.611685276031494
20-06-1995,5.34375,5.71875,788000,5.71875,5.34375,4.332958221435547
21-06-1995,5.1875,5.34375,494400,5.34375,5.21875,4.231601238250732
22-06-1995,5.0625,5.21875,762800,5.21875,5.15625,4.180923938751221
23-06-1995,5.1875,5.1875,2558400,5.34375,5.3125,4.307619094848633
26-06-1995,5.25,5.28125,352400,5.375,5.34375,4.332958221435547
27-06-1995,5.3125,5.3125,496800,5.4375,5.40625,4.383635520935059
28-06-1995,5.21875,5.375,1011200,5.375,5.25,4.256941795349121
29-06-1995,5.1875,5.25,250400,5.25,5.1875,4.20626163482666
30-06-1995,5.21875,5.21875,653600,5.4375,5.4375,4.4089741706848145
03-07-1995,5.34375,5.40625,317600,5.46875,5.46875,4.434311389923096
05-07-1995,5.28125,5.4375,124000,5.4375,5.28125,4.282276630401611
06-07-1995,5.21875,5.25,680800,5.28125,5.25,4.256941795349121
07-07-1995,5.21875,5.25,272400,5.25,5.25,4.256941795349121
10-07-1995,5.125,5.28125,638400,5.3125,5.125,4.155585289001465
11-07-1995,5.0,5.125,582000,5.28125,5.15625,4.180923938751221
12-07-1995,5.1875,5.1875,335600,5.28125,5.25,4.2631402015686035
13-07-1995,5.21875,5.375,817600,5.4375,5.21875,4.237766742706299
14-07-1995,5.15625,5.25,286000,5.28125,5.1875,4.212388515472412
17-07-1995,5.15625,5.1875,460400,5.25,5.21875,4.237766742706299
18-07-1995,5.21875,5.21875,77600,5.28125,5.28125,4.288516998291016
19-07-1995,5.1875,5.25,132000,5.28125,5.25,4.2631402015686035
20-07-1995,5.25,5.25,379200,5.375,5.28125,4.288516998291016
21-07-1995,5.21875,5.28125,248000,5.375,5.34375,4.339268684387207
24-07-1995,5.3125,5.3125,176400,5.40625,5.375,4.364644527435303
25-07-1995,5.40625,5.40625,344000,5.46875,5.4375,4.415395736694336
26-07-1995,5.34375,5.40625,244000,5.40625,5.34375,4.339268684387207
27-07-1995,5.21875,5.28125,758000,5.375,5.28125,4.288516998291016
28-07-1995,5.25,5.3125,111600,5.375,5.375,4.364644527435303
31-07-1995,5.34375,5.34375,217200,5.4375,5.40625,4.390018939971924
01-08-1995,5.1875,5.375,532800,5.375,5.21875,4.237766742706299
02-08-1995,5.1875,5.21875,302000,5.25,5.21875,4.237766742706299
03-08-1995,5.125,5.1875,552400,5.34375,5.34375,4.339268684387207
04-08-1995,5.28125,5.34375,558800,5.34375,5.34375,4.339268684387207
07-08-1995,5.34375,5.375,101600,5.40625,5.375,4.364644527435303
08-08-1995,5.34375,5.40625,305200,5.4375,5.34375,4.339268684387207
09-08-1995,5.3125,5.40625,703200,5.40625,5.3125,4.313894271850586
10-08-1995,5.1875,5.3125,166000,5.34375,5.1875,4.212388515472412
11-08-1995,5.15625,5.15625,349600,5.3125,5.3125,4.313894271850586
14-08-1995,5.25,5.34375,134400,5.34375,5.25,4.2631402015686035
15-08-1995,5.25,5.3125,108800,5.34375,5.25,4.2631402015686035
16-08-1995,5.125,5.21875,242000,5.21875,5.21875,4.237766742706299
17-08-1995,5.1875,5.1875,371600,5.3125,5.28125,4.288516998291016
18-08-1995,5.28125,5.28125,542400,5.5,5.40625,4.390018939971924
21-08-1995,5.40625,5.46875,575600,5.5,5.40625,4.390018939971924
22-08-1995,5.4375,5.4375,362400,5.53125,5.53125,4.491523265838623
23-08-1995,5.5625,5.5625,317600,5.71875,5.625,4.567652225494385
24-08-1995,5.46875,5.59375,2007200,5.625,5.5,4.466145992279053
25-08-1995,5.5,5.5,160000,5.53125,5.5,4.466145992279053
28-08-1995,5.46875,5.5,280000,5.5625,5.53125,4.491523265838623
29-08-1995,5.5,5.53125,56400,5.5625,5.53125,4.491523265838623
30-08-1995,5.625,5.625,290400,5.65625,5.65625,4.593026638031006
31-08-1995,5.6875,5.6875,116800,5.84375,5.8125,4.719904899597168
01-09-1995,5.84375,5.84375,431200,5.96875,5.96875,4.846785068511963
05-09-1995,5.90625,5.96875,545200,6.03125,6.03125,4.897538185119629
06-09-1995,5.90625,5.96875,415600,6.0,6.0,4.872161388397217
07-09-1995,5.78125,6.0,284000,6.03125,6.03125,4.897538185119629
08-09-1995,5.9375,6.03125,248000,6.09375,5.9375,4.821407318115234
11-09-1995,5.9375,5.96875,230800,6.03125,6.03125,4.897538185119629
12-09-1995,5.90625,6.0,312400,6.15625,6.15625,4.999039173126221
13-09-1995,6.03125,6.125,547600,6.125,6.0625,4.922913551330566
14-09-1995,5.9375,6.03125,348000,6.09375,6.09375,4.948287010192871
15-09-1995,6.0625,6.0625,221200,6.1875,6.1875,5.024415493011475
18-09-1995,6.125,6.15625,490000,6.34375,6.21875,5.049792289733887
19-09-1995,6.0,6.15625,504800,6.1875,6.15625,4.999039173126221
20-09-1995,6.0,6.125,284800,6.125,6.0,4.872161388397217
21-09-1995,5.9375,6.0625,451200,6.0625,6.03125,4.897538185119629
22-09-1995,5.78125,6.03125,143600,6.03125,5.875,4.770658016204834
25-09-1995,5.75,5.84375,183200,5.84375,5.78125,4.694531440734863
26-09-1995,5.65625,5.78125,232000,5.78125,5.65625,4.593026638031006
27-09-1995,5.625,5.6875,229200,5.75,5.75,4.669153690338135
28-09-1995,5.625,5.8125,263600,5.96875,5.625,4.567652225494385
29-09-1995,5.4375,5.59375,635600,5.59375,5.4375,4.415395736694336
02-10-1995,5.4375,5.46875,548400,5.6875,5.59375,4.542275905609131
03-10-1995,5.5625,5.5625,304400,5.6875,5.65625,4.593026638031006
04-10-1995,5.5625,5.625,230800,5.65625,5.65625,4.593026638031006
05-10-1995,5.5,5.625,76800,5.625,5.53125,4.491523265838623
06-10-1995,5.5,5.5,259200,5.5625,5.5625,4.516900062561035
09-10-1995,5.5,5.59375,48000,5.59375,5.5,4.466145992279053
10-10-1995,5.375,5.46875,109600,5.46875,5.375,4.364644527435303
11-10-1995,5.34375,5.375,166000,5.40625,5.34375,4.339268684387207
12-10-1995,5.34375,5.375,620000,5.5625,5.5,4.4724249839782715
13-10-1995,5.5,5.5,227200,5.59375,5.53125,4.497835159301758
16-10-1995,5.40625,5.53125,188800,5.53125,5.46875,4.447014808654785
17-10-1995,5.40625,5.4375,398400,5.5,5.5,4.4724249839782715
18-10-1995,5.25,5.4375,1966400,5.46875,5.25,4.269132137298584
19-10-1995,5.21875,5.21875,1503600,5.3125,5.21875,4.243721961975098
20-10-1995,5.125,5.25,333600,5.25,5.125,4.16748571395874
23-10-1995,5.0,5.15625,608000,5.15625,5.0,4.0658392906188965
24-10-1995,4.90625,5.0,1186800,5.0,4.9375,4.015017986297607
25-10-1995,4.71875,4.9375,658400,4.9375,4.71875,3.8371381759643555
26-10-1995,4.6875,4.75,439600,4.8125,4.71875,3.8371381759643555
27-10-1995,4.71875,4.71875,352000,4.875,4.875,3.96419358253479
30-10-1995,4.9375,4.9375,646800,5.0,4.96875,4.040427207946777
31-10-1995,4.96875,5.0,314800,5.03125,5.0,4.0658392906188965
01-11-1995,5.0,5.0,390800,5.03125,5.0,4.0658392906188965
02-11-1995,4.9375,4.96875,42800,5.0,4.9375,4.015017986297607
03-11-1995,4.875,4.875,165600,4.96875,4.96875,4.040427207946777
06-11-1995,4.90625,4.96875,63600,4.96875,4.90625,3.98960542678833
07-11-1995,4.9375,4.9375,476400,5.03125,5.03125,4.091253757476807
08-11-1995,4.875,4.96875,907200,5.0,5.0,4.0658392906188965
09-11-1995,5.03125,5.09375,1176400,5.15625,5.03125,4.091253757476807
10-11-1995,4.90625,5.03125,550000,5.03125,4.90625,3.98960542678833
13-11-1995,4.9375,4.96875,446800,5.09375,5.09375,4.1420769691467285
14-11-1995,4.9375,5.03125,1045600,5.0625,4.96875,4.040427207946777
15-11-1995,4.96875,4.96875,228000,5.03125,5.0,4.0658392906188965
16-11-1995,5.03125,5.03125,1046400,5.4375,5.375,4.370779991149902
17-11-1995,5.375,5.40625,906800,5.40625,5.40625,4.3961896896362305
20-11-1995,5.1875,5.40625,585600,5.40625,5.1875,4.218308925628662
21-11-1995,5.1875,5.21875,363200,5.375,5.34375,4.345367431640625
22-11-1995,5.34375,5.375,432800,5.40625,5.40625,4.3961896896362305
24-11-1995,5.3125,5.40625,229200,5.40625,5.3125,4.319958686828613
27-11-1995,5.125,5.21875,851200,5.21875,5.1875,4.218308925628662
28-11-1995,5.1875,5.1875,315200,5.28125,5.25,4.269132137298584
29-11-1995,5.21875,5.28125,28800,5.28125,5.21875,4.243721961975098
30-11-1995,5.1875,5.28125,311200,5.28125,5.25,4.269132137298584
01-12-1995,5.25,5.25,308400,5.34375,5.28125,4.294545650482178
04-12-1995,5.125,5.3125,1056000,5.3125,5.3125,4.319958686828613
05-12-1995,5.3125,5.3125,461200,5.375,5.375,4.370779991149902
06-12-1995,5.40625,5.40625,685200,5.4375,5.4375,4.42160177230835
07-12-1995,5.4375,5.4375,720400,5.5,5.5,4.4724249839782715
08-12-1995,5.4375,5.46875,18838800,5.65625,5.65625,4.599482536315918
11-12-1995,5.71875,5.8125,5631200,5.875,5.875,4.777365684509277
12-12-1995,5.8125,5.875,2874000,5.90625,5.875,4.777365684509277
13-12-1995,5.84375,5.875,3176800,6.09375,6.0,4.879009246826172
14-12-1995,5.90625,6.03125,2280000,6.09375,5.90625,4.802774429321289
15-12-1995,5.875,6.1875,1721200,6.21875,6.0,4.879009246826172
18-12-1995,5.8125,5.9375,974000,5.96875,5.96875,4.853597164154053
19-12-1995,5.875,5.96875,876000,6.0625,6.0625,4.929832935333252
20-12-1995,6.03125,6.0625,2001200,6.21875,6.03125,4.904417991638184
21-12-1995,6.0,6.03125,1896800,6.125,6.03125,4.904417991638184
22-12-1995,5.9375,6.09375,1115600,6.15625,6.03125,4.904417991638184
26-12-1995,6.03125,6.09375,490800,6.09375,6.03125,4.904417991638184
27-12-1995,5.9375,6.03125,582000,6.03125,5.9375,4.82818603515625
28-12-1995,5.90625,5.90625,1150800,6.15625,6.15625,5.00606632232666
29-12-1995,5.9375,6.1875,677200,6.1875,6.0,4.879009246826172
02-01-1996,6.03125,6.0625,579600,6.125,6.09375,4.9552412033081055
03-01-1996,5.875,6.125,1148000,6.125,5.96875,4.853597164154053
04-01-1996,5.9375,5.96875,1644000,6.0625,5.96875,4.853597164154053
05-01-1996,5.9375,5.9375,680800,6.09375,6.0625,4.929832935333252
08-01-1996,6.0625,6.0625,779200,6.125,6.125,4.980655670166016
09-01-1996,5.9375,6.15625,948400,6.15625,6.0,4.879009246826172
10-01-1996,5.84375,6.0,516400,6.03125,5.96875,4.853597164154053
11-01-1996,5.6875,5.8125,1618400,5.8125,5.78125,4.707043170928955
12-01-1996,5.75,5.75,555200,5.8125,5.8125,4.732485771179199
15-01-1996,5.75,5.875,1159200,5.875,5.75,4.6815996170043945
16-01-1996,5.71875,5.75,1683200,5.8125,5.75,4.6815996170043945
17-01-1996,5.59375,5.75,2281600,5.78125,5.75,4.6815996170043945
18-01-1996,5.71875,5.75,504000,5.78125,5.78125,4.707043170928955
19-01-1996,5.75,5.8125,803200,5.84375,5.75,4.6815996170043945
22-01-1996,5.78125,5.78125,545600,5.875,5.875,4.783374309539795
23-01-1996,5.78125,5.84375,426400,5.90625,5.78125,4.707043170928955
24-01-1996,5.78125,5.8125,539600,5.96875,5.875,4.783374309539795
25-01-1996,5.875,5.875,693600,5.96875,5.9375,4.834261894226074
26-01-1996,5.875,5.90625,1880000,5.90625,5.875,4.783374309539795
29-01-1996,5.875,5.90625,1636800,6.0,6.0,4.885148048400879
30-01-1996,5.96875,6.0,970800,6.03125,6.03125,4.910592555999756
31-01-1996,5.96875,6.03125,650000,6.125,6.09375,4.961477756500244
01-02-1996,6.125,6.125,2182400,6.3125,6.21875,5.063253402709961
02-02-1996,6.125,6.15625,1204000,6.25,6.15625,5.012362003326416
05-02-1996,6.0625,6.09375,923200,6.15625,6.09375,4.961477756500244
06-02-1996,6.03125,6.09375,938400,6.125,6.03125,4.910592555999756
07-02-1996,6.0625,6.09375,838800,6.15625,6.125,4.986920356750488
08-02-1996,6.125,6.125,705600,6.25,6.1875,5.037810325622559
09-02-1996,6.125,6.1875,1770400,6.28125,6.25,5.0886921882629395
12-02-1996,6.15625,6.25,4923200,6.65625,6.53125,5.317687511444092
13-02-1996,6.25,6.59375,3442800,6.59375,6.34375,5.1650285720825195
14-02-1996,6.375,6.375,1570000,6.625,6.5625,5.343129634857178
15-02-1996,6.53125,6.53125,1637600,6.9375,6.90625,5.623009204864502
16-02-1996,6.65625,7.125,2182000,7.125,6.75,5.495791912078857
20-02-1996,6.5625,6.625,421200,6.71875,6.625,5.394016265869141
21-02-1996,6.53125,6.5625,1553600,6.71875,6.71875,5.470347881317139
22-02-1996,6.59375,6.6875,1300800,6.75,6.6875,5.444903373718262
23-02-1996,6.5625,6.65625,660000,6.75,6.71875,5.470347881317139
26-02-1996,6.5625,6.625,556400,6.65625,6.59375,5.368572235107422
27-02-1996,6.5,6.53125,532800,6.625,6.59375,5.368572235107422
28-02-1996,6.40625,6.59375,2225600,6.71875,6.40625,5.215910911560059
29-02-1996,6.1875,6.4375,956000,6.4375,6.25,5.0886921882629395
01-03-1996,6.25,6.25,402800,6.34375,6.25,5.0886921882629395
04-03-1996,6.1875,6.25,809200,6.34375,6.3125,5.139581680297852
05-03-1996,6.15625,6.25,574000,6.25,6.25,5.0886921882629395
06-03-1996,6.1875,6.21875,830000,6.40625,6.40625,5.215910911560059
07-03-1996,6.3125,6.375,1132000,6.40625,6.375,5.190468788146973
08-03-1996,6.1875,6.1875,278400,6.28125,6.21875,5.063253402709961
11-03-1996,6.09375,6.1875,1366400,6.1875,6.15625,5.012362003326416
12-03-1996,6.09375,6.125,1108400,6.15625,6.125,4.986920356750488
13-03-1996,6.125,6.125,1038800,6.1875,6.1875,5.037810325622559
14-03-1996,6.25,6.25,2724800,6.40625,6.3125,5.139581680297852
15-03-1996,6.0,6.25,1051600,6.25,6.0625,4.936033725738525
18-03-1996,6.0625,6.09375,4547200,6.375,6.375,5.190468788146973
19-03-1996,6.34375,6.375,473600,6.4375,6.34375,5.1650285720825195
20-03-1996,6.1875,6.375,223600,6.375,6.1875,5.037810325622559
21-03-1996,6.125,6.1875,936800,6.28125,6.125,4.986920356750488
22-03-1996,6.09375,6.15625,1019600,6.1875,6.09375,4.961477756500244
25-03-1996,6.0625,6.0625,907200,6.28125,6.28125,5.114139080047607
26-03-1996,6.25,6.28125,216800,6.3125,6.3125,5.139581680297852
27-03-1996,6.40625,6.5,1842000,6.59375,6.53125,5.317687511444092
28-03-1996,6.53125,6.53125,1270000,6.65625,6.65625,5.419460773468018
29-03-1996,6.5625,6.59375,1343600,6.625,6.59375,5.368572235107422
01-04-1996,6.5625,6.59375,752800,6.6875,6.6875,5.444903373718262
02-04-1996,6.65625,6.71875,1116400,6.875,6.84375,5.572122097015381
03-04-1996,6.71875,6.78125,1519600,6.96875,6.9375,5.6484527587890625
04-04-1996,6.75,6.9375,796800,6.9375,6.875,5.597565174102783
08-04-1996,6.625,6.84375,1262800,6.84375,6.8125,5.546676158905029
09-04-1996,6.8125,6.8125,923200,6.90625,6.875,5.597565174102783
10-04-1996,6.78125,6.8125,1358000,6.96875,6.9375,5.6484527587890625
11-04-1996,6.84375,6.875,932000,6.9375,6.875,5.6036224365234375
12-04-1996,6.59375,6.875,1120000,6.875,6.65625,5.425325393676758
15-04-1996,6.5625,6.59375,948000,6.78125,6.75,5.501739025115967
16-04-1996,6.6875,6.78125,846000,6.78125,6.75,5.501739025115967
17-04-1996,6.65625,6.75,1494800,6.75,6.6875,5.450797080993652
18-04-1996,6.5,6.6875,1113200,6.6875,6.53125,5.323441505432129
19-04-1996,6.5,6.5,884400,6.6875,6.65625,5.425325393676758
22-04-1996,6.65625,6.65625,2457600,6.90625,6.8125,5.552680492401123
23-04-1996,6.78125,6.9375,1053200,7.0,6.90625,5.62909460067749
24-04-1996,6.90625,6.90625,1069200,7.15625,7.03125,5.730976581573486
25-04-1996,6.9375,6.96875,536800,7.0,6.9375,5.654566287994385
26-04-1996,6.78125,6.875,486400,6.9375,6.78125,5.527209281921387
29-04-1996,6.71875,6.71875,705200,6.875,6.78125,5.527209281921387
30-04-1996,6.59375,6.8125,779600,6.875,6.625,5.399855136871338
01-05-1996,6.5,6.625,808400,6.75,6.5,5.297970294952393
02-05-1996,6.46875,6.5625,373600,6.59375,6.5625,5.348912239074707
03-05-1996,6.53125,6.625,680000,6.625,6.625,5.399855136871338
06-05-1996,6.5625,6.59375,504400,6.65625,6.5625,5.348912239074707
07-05-1996,6.125,6.625,1395600,6.65625,6.21875,5.068732738494873
08-05-1996,6.1875,6.25,620400,6.34375,6.25,5.0941996574401855
09-05-1996,6.25,6.25,332000,6.375,6.375,5.196084499359131
10-05-1996,6.25,6.375,818400,6.40625,6.3125,5.145143032073975
13-05-1996,6.21875,6.25,796000,6.3125,6.25,5.0941996574401855
14-05-1996,6.15625,6.25,1208800,6.28125,6.15625,5.017785549163818
15-05-1996,6.09375,6.1875,2372400,6.3125,6.3125,5.145143032073975
16-05-1996,6.25,6.34375,379600,6.34375,6.28125,5.119673728942871
17-05-1996,6.1875,6.25,1017600,6.28125,6.25,5.0941996574401855
20-05-1996,6.25,6.25,425600,6.375,6.34375,5.170617580413818
21-05-1996,6.3125,6.3125,2660400,6.46875,6.4375,5.247027397155762
22-05-1996,6.4375,6.4375,552000,6.5,6.5,5.297970294952393
23-05-1996,6.53125,6.5625,1154800,6.75,6.5625,5.348912239074707
24-05-1996,6.4375,6.5,1701200,6.53125,6.5,5.297970294952393
28-05-1996,6.359375,6.53125,554000,6.53125,6.4375,5.247027397155762
29-05-1996,6.3125,6.40625,613600,6.40625,6.375,5.196084499359131
30-05-1996,6.25,6.375,604000,6.375,6.3125,5.145143032073975
31-05-1996,6.25,6.34375,493200,6.375,6.3125,5.145143032073975
03-06-1996,6.28125,6.3125,211200,6.3125,6.3125,5.145143032073975
04-06-1996,6.375,6.40625,654800,6.46875,6.375,5.196084499359131
05-06-1996,6.40625,6.4375,679600,6.46875,6.4375,5.247027397155762
06-06-1996,6.25,6.4375,278800,6.4375,6.28125,5.119673728942871
07-06-1996,6.15625,6.21875,702800,6.34375,6.34375,5.170617580413818
10-06-1996,6.3125,6.34375,241200,6.34375,6.3125,5.145143032073975
11-06-1996,6.28125,6.3125,761600,6.375,6.3125,5.145143032073975
12-06-1996,6.25,6.3125,1385200,6.3125,6.28125,5.119673728942871
13-06-1996,6.09375,6.28125,985600,6.28125,6.1875,5.0432610511779785
14-06-1996,6.15625,6.1875,1093200,6.21875,6.15625,5.017785549163818
17-06-1996,6.0625,6.09375,586400,6.125,6.0625,4.94137716293335
18-06-1996,5.96875,6.0,1450000,6.125,5.96875,4.864962100982666
19-06-1996,6.03125,6.03125,1416800,6.15625,6.0625,4.94137716293335
20-06-1996,6.0625,6.09375,1258400,6.125,6.09375,4.966848373413086
21-06-1996,6.0,6.09375,650800,6.09375,6.0,4.890433311462402
24-06-1996,5.96875,6.03125,948000,6.0625,6.0,4.890433311462402
25-06-1996,5.96875,6.03125,2754000,6.25,6.15625,5.017785549163818
26-06-1996,6.21875,6.21875,5256400,6.625,6.625,5.399855136871338
27-06-1996,6.53125,6.59375,4884000,6.75,6.75,5.501739025115967
28-06-1996,6.78125,6.8125,5409200,6.96875,6.96875,5.680035591125488
01-07-1996,6.90625,6.96875,3778800,7.28125,7.28125,5.9347453117370605
02-07-1996,7.125,7.15625,2342000,7.25,7.21875,5.883803844451904
03-07-1996,7.125,7.125,1392000,7.21875,7.21875,5.883803844451904
05-07-1996,7.125,7.21875,753600,7.3125,7.28125,5.9347453117370605
08-07-1996,7.1875,7.25,924800,7.3125,7.25,5.909275054931641
09-07-1996,7.25,7.25,2440800,7.5625,7.5,6.113041400909424
10-07-1996,7.46875,7.5,3225600,7.65625,7.5625,6.163985252380371
11-07-1996,7.125,7.46875,3954400,7.59375,7.1875,5.86414909362793
12-07-1996,7.125,7.15625,1191200,7.21875,7.15625,5.838649749755859
15-07-1996,7.09375,7.125,1718400,7.34375,7.125,5.813155651092529
16-07-1996,6.5625,7.0625,1854400,7.09375,6.65625,5.430711269378662
17-07-1996,6.6875,6.6875,2270000,6.96875,6.6875,5.456208229064941
18-07-1996,6.65625,6.75,990400,6.8125,6.71875,5.481703281402588
19-07-1996,6.65625,6.6875,1322800,6.71875,6.6875,5.456208229064941
22-07-1996,6.5625,6.6875,1101600,6.6875,6.59375,5.379717826843262
23-07-1996,6.53125,6.625,2303200,6.8125,6.8125,5.558191776275635
24-07-1996,6.625,6.75,327600,6.75,6.625,5.405216217041016
25-07-1996,6.375,6.625,762800,6.78125,6.375,5.2012434005737305
26-07-1996,6.40625,6.40625,462800,6.5625,6.53125,5.328727722167969
29-07-1996,6.4375,6.5,676800,6.53125,6.5,5.303229808807373
30-07-1996,6.25,6.46875,1988800,6.53125,6.3125,5.150254249572754
31-07-1996,6.125,6.3125,1733600,6.3125,6.25,5.099257946014404
01-08-1996,6.25,6.25,1422800,6.375,6.3125,5.150254249572754
02-08-1996,6.3125,6.3125,1042800,6.46875,6.46875,5.2777323722839355
05-08-1996,6.34375,6.46875,503200,6.59375,6.59375,5.379717826843262
06-08-1996,6.5,6.59375,495200,6.65625,6.65625,5.430711269378662
07-08-1996,6.75,6.75,1542800,6.84375,6.84375,5.583690166473389
08-08-1996,6.75,6.84375,767600,6.875,6.84375,5.583690166473389
09-08-1996,6.71875,6.875,634400,6.875,6.71875,5.481703281402588
12-08-1996,6.625,6.75,167600,6.75,6.625,5.405216217041016
13-08-1996,6.625,6.65625,389600,6.6875,6.625,5.405216217041016
14-08-1996,6.625,6.625,333200,6.65625,6.65625,5.430711269378662
15-08-1996,6.625,6.625,331600,6.75,6.75,5.507201194763184
16-08-1996,6.625,6.6875,329600,6.71875,6.71875,5.481703281402588
19-08-1996,6.625,6.65625,339200,6.78125,6.78125,5.532697677612305
20-08-1996,6.6875,6.8125,928800,6.8125,6.75,5.507201194763184
21-08-1996,6.59375,6.71875,837600,6.71875,6.65625,5.430711269378662
22-08-1996,6.59375,6.65625,433200,6.6875,6.65625,5.430711269378662
23-08-1996,6.5625,6.59375,228800,6.65625,6.625,5.405216217041016
26-08-1996,6.5625,6.625,488000,6.65625,6.65625,5.430711269378662
27-08-1996,6.5,6.625,669600,6.625,6.5,5.303229808807373
28-08-1996,6.46875,6.5,392800,6.5,6.46875,5.2777323722839355
29-08-1996,6.4375,6.46875,499200,6.5,6.46875,5.2777323722839355
30-08-1996,6.375,6.4375,160800,6.46875,6.46875,5.2777323722839355
03-09-1996,6.5,6.5,1298800,6.59375,6.5625,5.354222297668457
04-09-1996,6.40625,6.53125,356400,6.53125,6.46875,5.2777323722839355
05-09-1996,6.375,6.4375,382800,6.5,6.4375,5.252237319946289
06-09-1996,6.3125,6.4375,2431600,6.59375,6.46875,5.2777323722839355
09-09-1996,6.40625,6.46875,501200,6.53125,6.5,5.303229808807373
10-09-1996,6.46875,6.5,488400,6.53125,6.46875,5.2777323722839355
11-09-1996,6.46875,6.46875,1305600,6.65625,6.5625,5.354222297668457
12-09-1996,6.28125,6.53125,1240800,6.53125,6.3125,5.150254249572754
13-09-1996,6.125,6.3125,1250400,6.3125,6.125,4.997273921966553
16-09-1996,6.03125,6.125,1839600,6.125,6.0625,4.946282386779785
17-09-1996,5.71875,5.875,3505600,5.9375,5.875,4.793308258056641
18-09-1996,5.875,5.90625,2286800,6.09375,6.0,4.895290374755859
19-09-1996,5.96875,5.96875,2160800,6.09375,6.03125,4.920784950256348
20-09-1996,6.03125,6.03125,601200,6.09375,6.03125,4.920784950256348
23-09-1996,6.0,6.0625,1021600,6.0625,6.03125,4.920784950256348
24-09-1996,5.84375,6.0,1552000,6.0625,5.90625,4.818802833557129
25-09-1996,5.78125,5.90625,1691200,6.0,6.0,4.895290374755859
26-09-1996,6.03125,6.03125,856400,6.15625,6.125,4.997273921966553
27-09-1996,6.0,6.0625,1036000,6.09375,6.03125,4.920784950256348
30-09-1996,6.0,6.0,1134400,6.21875,6.21875,5.073764324188232
01-10-1996,6.25,6.25,956400,6.3125,6.3125,5.150254249572754
02-10-1996,6.28125,6.3125,774800,6.40625,6.375,5.2012434005737305
03-10-1996,6.28125,6.375,691600,6.375,6.28125,5.124755859375
04-10-1996,6.28125,6.34375,592000,6.40625,6.28125,5.124755859375
07-10-1996,6.25,6.28125,1552000,6.4375,6.40625,5.226739883422852
08-10-1996,6.34375,6.40625,1220000,6.46875,6.375,5.2012434005737305
09-10-1996,6.25,6.375,772800,6.375,6.3125,5.150254249572754
10-10-1996,5.9375,6.21875,2254800,6.21875,6.0,4.901113033294678
11-10-1996,5.9375,6.0,1258800,6.0625,5.9375,4.850058078765869
14-10-1996,5.8125,5.9375,2306000,5.96875,5.84375,4.7734808921813965
15-10-1996,5.84375,5.875,1424800,6.0,6.0,4.901113033294678
16-10-1996,5.96875,6.0,1880000,6.09375,6.09375,4.977690696716309
17-10-1996,6.125,6.15625,1636400,6.25,6.25,5.10532283782959
18-10-1996,6.21875,6.25,1060800,6.40625,6.375,5.207430362701416
21-10-1996,6.25,6.34375,722000,6.375,6.25,5.10532283782959
22-10-1996,6.15625,6.25,1494400,6.3125,6.1875,5.054271697998047
23-10-1996,5.96875,6.15625,2842800,6.15625,6.0,4.901113033294678
24-10-1996,6.0,6.03125,1593200,6.09375,6.0625,4.952166557312012
25-10-1996,6.09375,6.09375,1020000,6.21875,6.21875,5.079799652099609
28-10-1996,6.09375,6.15625,995600,6.1875,6.09375,4.977690696716309
29-10-1996,6.03125,6.09375,1533600,6.15625,6.15625,5.028746128082275
30-10-1996,6.15625,6.15625,3300400,6.375,6.375,5.207430362701416
31-10-1996,6.375,6.375,1713200,6.53125,6.4375,5.258484840393066
01-11-1996,6.25,6.4375,1226800,6.46875,6.28125,5.130851745605469
04-11-1996,6.1875,6.25,1135200,6.28125,6.1875,5.054271697998047
05-11-1996,6.1875,6.25,730800,6.25,6.21875,5.079799652099609
06-11-1996,6.125,6.21875,395600,6.21875,6.125,5.003216743469238
07-11-1996,6.0,6.0,1647200,6.0625,6.0,4.901113033294678
08-11-1996,6.0,6.0625,1212400,6.15625,6.15625,5.028746128082275
11-11-1996,6.15625,6.1875,1075600,6.28125,6.25,5.10532283782959
12-11-1996,6.25,6.3125,1186400,6.375,6.25,5.10532283782959
13-11-1996,6.25,6.28125,1387200,6.28125,6.28125,5.130851745605469
14-11-1996,6.28125,6.28125,2227200,6.3125,6.3125,5.156378269195557
15-11-1996,6.21875,6.28125,1321600,6.34375,6.25,5.10532283782959
18-11-1996,6.1875,6.25,682000,6.25,6.25,5.10532283782959
19-11-1996,6.21875,6.25,2281600,6.40625,6.40625,5.232956409454346
20-11-1996,6.5625,6.75,3805200,6.78125,6.78125,5.53927755355835
21-11-1996,6.59375,6.78125,1956000,6.78125,6.625,5.411643981933594
22-11-1996,6.625,6.65625,2746800,7.0,6.96875,5.692437171936035
