Date,Low,Open,Volume,High,Close,Adjusted Close
17-03-1980,1.6796879768371582,0.0,164800,1.75,1.6875,0.5821937918663025
18-03-1980,1.6328129768371582,0.0,188800,1.6875,1.65625,0.5714122653007507
19-03-1980,1.6640629768371582,0.0,84800,1.6875,1.6796879768371582,0.579498827457428
20-03-1980,1.6484379768371582,0.0,328000,1.6875,1.6875,0.5821937918663025
21-03-1980,1.6640629768371582,0.0,249600,1.6796879768371582,1.6640629768371582,0.5741081833839417
24-03-1980,1.640625,0.0,142400,1.6796879768371582,1.6796879768371582,0.579498827457428
25-03-1980,1.6640629768371582,0.0,249600,1.6875,1.6640629768371582,0.5741081833839417
26-03-1980,1.6484379768371582,0.0,228800,1.6875,1.65625,0.5714122653007507
27-03-1980,1.640625,0.0,268800,1.65625,1.6484379768371582,0.5687175393104553
28-03-1980,1.6484379768371582,0.0,132800,1.671875,1.65625,0.5714122653007507
31-03-1980,1.671875,0.0,363200,1.796875,1.796875,0.6199288964271545
01-04-1980,1.75,0.0,276800,1.8046879768371582,1.765625,0.609147310256958
02-04-1980,1.7109379768371582,0.0,86400,1.765625,1.7109379768371582,0.5902804732322693
03-04-1980,1.6953129768371582,0.0,156800,1.7265629768371582,1.71875,0.5929754972457886
07-04-1980,1.6875,0.0,195200,1.71875,1.6953129768371582,0.5848895907402039
08-04-1980,1.6875,0.0,414400,1.71875,1.7109379768371582,0.5902804732322693
09-04-1980,1.6796879768371582,0.0,432000,1.7109379768371582,1.6875,0.5821937918663025
10-04-1980,1.6796879768371582,0.0,544000,1.703125,1.6875,0.5821937918663025
11-04-1980,1.6953129768371582,0.0,372800,1.734375,1.734375,0.5983659029006958
14-04-1980,1.7265629768371582,0.0,107200,1.75,1.734375,0.5983659029006958
15-04-1980,1.7265629768371582,0.0,110400,1.75,1.7265629768371582,0.5956712365150452
16-04-1980,1.734375,0.0,316800,1.75,1.734375,0.5983659029006958
17-04-1980,1.734375,0.0,108800,1.75,1.734375,0.5983659029006958
18-04-1980,1.734375,0.0,96000,1.75,1.7421879768371582,0.6010617613792419
21-04-1980,1.734375,0.0,128000,1.7421879768371582,1.734375,0.5983659029006958
22-04-1980,1.7265629768371582,0.0,99200,1.765625,1.765625,0.609147310256958
23-04-1980,1.765625,0.0,123200,1.796875,1.765625,0.609147310256958
24-04-1980,1.78125,0.0,152000,1.8125,1.7890629768371582,0.6172337532043457
25-04-1980,1.7734379768371582,0.0,67200,1.8125,1.8046879768371582,0.6226239204406738
28-04-1980,1.765625,0.0,361600,1.8046879768371582,1.78125,0.6145382523536682
29-04-1980,1.7890629768371582,0.0,164800,1.8359379768371582,1.8125,0.6253195405006409
30-04-1980,1.796875,0.0,152000,1.84375,1.8359379768371582,0.6334056258201599
01-05-1980,1.8203129768371582,0.0,312000,1.8671879768371582,1.859375,0.6414915919303894
02-05-1980,1.875,0.0,476800,1.953125,1.9453129768371582,0.671140193939209
05-05-1980,1.90625,0.0,828800,1.9296879768371582,1.9296879768371582,0.6657494306564331
06-05-1980,1.8828129768371582,0.0,216000,1.90625,1.8828129768371582,0.6495779752731323
07-05-1980,1.8671879768371582,0.0,209600,1.90625,1.890625,0.6522728204727173
08-05-1980,1.8984379768371582,0.0,158400,1.9140629768371582,1.8984379768371582,0.6549684405326843
09-05-1980,1.8671879768371582,0.0,129600,1.8984379768371582,1.8671879768371582,0.6441867351531982
12-05-1980,1.8671879768371582,0.0,190400,1.875,1.8671879768371582,0.6441867351531982
13-05-1980,1.859375,0.0,70400,1.875,1.875,0.646882176399231
14-05-1980,1.859375,0.0,129600,1.875,1.875,0.646882176399231
15-05-1980,1.8125,0.0,240000,1.875,1.859375,0.6414915919303894
16-05-1980,1.765625,0.0,120000,1.84375,1.765625,0.609147310256958
19-05-1980,1.765625,0.0,148800,1.7890629768371582,1.7890629768371582,0.6172337532043457
20-05-1980,1.7890629768371582,0.0,158400,1.8359379768371582,1.8359379768371582,0.6334056258201599
21-05-1980,1.8203129768371582,0.0,532800,1.8671879768371582,1.8359379768371582,0.6334056258201599
22-05-1980,1.796875,0.0,571200,1.828125,1.828125,0.6307103633880615
23-05-1980,1.796875,0.0,224000,1.828125,1.828125,0.6307103633880615
27-05-1980,1.8125,0.0,316800,1.8671879768371582,1.828125,0.6307103633880615
28-05-1980,1.8359379768371582,0.0,542400,1.8671879768371582,1.8671879768371582,0.6441867351531982
29-05-1980,1.8515629768371582,0.0,187200,1.875,1.8515629768371582,0.638796329498291
30-05-1980,1.84375,0.0,227200,1.890625,1.890625,0.6522728204727173
02-06-1980,1.875,0.0,192000,1.90625,1.890625,0.6522728204727173
03-06-1980,1.90625,0.0,320000,1.953125,1.921875,0.6630542874336243
04-06-1980,1.921875,0.0,123200,1.953125,1.9296879768371582,0.6657494306564331
05-06-1980,1.9375,0.0,467200,2.0,1.96875,0.6792263388633728
06-06-1980,1.9375,0.0,120000,1.96875,1.9375,0.6684452891349792
09-06-1980,1.9296879768371582,0.0,83200,1.953125,1.9375,0.6684452891349792
10-06-1980,1.953125,0.0,203200,1.9921879768371582,1.9921879768371582,0.6873125433921814
11-06-1980,1.9765629768371582,0.0,70400,1.9921879768371582,1.9921879768371582,0.6873125433921814
12-06-1980,1.9609379768371582,0.0,128000,1.984375,1.96875,0.6792263388633728
13-06-1980,1.953125,0.0,176000,1.984375,1.984375,0.6846169233322144
16-06-1980,1.953125,0.0,251200,1.984375,1.9765629768371582,0.6819218993186951
17-06-1980,1.953125,0.0,155200,1.9765629768371582,1.953125,0.6738355755805969
18-06-1980,1.9453129768371582,0.0,147200,1.9609379768371582,1.9609379768371582,0.676531195640564
19-06-1980,1.9375,0.0,187200,1.9609379768371582,1.9375,0.6684452891349792
20-06-1980,1.9375,0.0,300800,1.9609379768371582,1.953125,0.6738355755805969
23-06-1980,1.9375,0.0,128000,1.953125,1.9375,0.6684452891349792
24-06-1980,1.9375,0.0,452800,1.953125,1.9375,0.6684452891349792
25-06-1980,1.9375,0.0,142400,1.9609379768371582,1.9609379768371582,0.676531195640564
26-06-1980,1.9296879768371582,0.0,152000,1.953125,1.9375,0.6684452891349792
27-06-1980,1.9296879768371582,0.0,737600,1.9375,1.9375,0.6684452891349792
30-06-1980,1.84375,0.0,265600,1.9375,1.875,0.646882176399231
01-07-1980,1.84375,0.0,1777600,1.890625,1.890625,0.6522728204727173
02-07-1980,1.875,0.0,489600,1.890625,1.8828129768371582,0.6495779752731323
03-07-1980,1.890625,0.0,136000,1.921875,1.8984379768371582,0.6549684405326843
07-07-1980,1.9140629768371582,0.0,193600,1.9375,1.921875,0.6630542874336243
08-07-1980,1.9375,0.0,206400,1.953125,1.953125,0.6738355755805969
09-07-1980,1.9375,0.0,321600,1.9921879768371582,1.9921879768371582,0.6873125433921814
10-07-1980,1.96875,0.0,627200,2.023437976837158,2.0,0.6900075674057007
11-07-1980,1.984375,0.0,158400,2.015625,2.015625,0.6953984498977661
14-07-1980,2.0,0.0,190400,2.054687976837158,2.054687976837158,0.7088749408721924
15-07-1980,2.046875,0.0,291200,2.078125,2.070312976837158,0.7142654657363892
16-07-1980,2.046875,0.0,859200,2.070312976837158,2.070312976837158,0.7142654657363892
17-07-1980,2.0625,0.0,480000,2.085937976837158,2.078125,0.7169613838195801
18-07-1980,2.070312976837158,0.0,652800,2.148437976837158,2.132812976837158,0.7358286380767822
21-07-1980,2.132812976837158,0.0,268800,2.15625,2.15625,0.7439146041870117
22-07-1980,2.148437976837158,0.0,350400,2.171875,2.148437976837158,0.7412192821502686
23-07-1980,2.125,0.0,280000,2.15625,2.125,0.7331330180168152
24-07-1980,2.125,0.0,332800,2.140625,2.140625,0.7385238409042358
25-07-1980,2.125,0.0,121600,2.140625,2.132812976837158,0.7358286380767822
28-07-1980,2.125,0.0,355200,2.140625,2.140625,0.7385238409042358
29-07-1980,2.132812976837158,0.0,188800,2.171875,2.171875,0.7493054270744324
30-07-1980,2.1875,0.0,1552000,2.195312976837158,2.195312976837158,0.7573914527893066
31-07-1980,2.1875,0.0,1233600,2.210937976837158,2.210937976837158,0.7627821564674377
01-08-1980,2.21875,0.0,305600,2.234375,2.226562976837158,0.7681729197502136
04-08-1980,2.21875,0.0,1603200,2.273437976837158,2.273437976837158,0.7843447327613831
05-08-1980,2.226562976837158,0.0,1168000,2.265625,2.25,0.7762589454650879
06-08-1980,2.242187976837158,0.0,254400,2.289062976837158,2.289062976837158,0.7897360324859619
07-08-1980,2.25,0.0,276800,2.273437976837158,2.257812976837158,0.7789542078971863
08-08-1980,2.257812976837158,0.0,598400,2.28125,2.273437976837158,0.7843447327613831
11-08-1980,2.25,0.0,259200,2.257812976837158,2.257812976837158,0.7789542078971863
12-08-1980,2.25,0.0,1137600,2.3125,2.273437976837158,0.7843447327613831
13-08-1980,2.257812976837158,0.0,140800,2.296875,2.265625,0.7816495895385742
14-08-1980,2.25,0.0,126400,2.265625,2.265625,0.7816495895385742
15-08-1980,2.257812976837158,0.0,195200,2.289062976837158,2.257812976837158,0.7789542078971863
18-08-1980,2.203125,0.0,299200,2.25,2.203125,0.7600865960121155
19-08-1980,2.171875,0.0,622400,2.203125,2.179687976837158,0.7520013451576233
20-08-1980,2.148437976837158,0.0,259200,2.195312976837158,2.195312976837158,0.7573914527893066
21-08-1980,2.25,0.0,745600,2.28125,2.265625,0.7816495895385742
22-08-1980,2.257812976837158,0.0,195200,2.28125,2.265625,0.7816495895385742
25-08-1980,2.25,0.0,91200,2.265625,2.25,0.7762589454650879
26-08-1980,2.25,0.0,254400,2.28125,2.265625,0.7816495895385742
27-08-1980,2.21875,0.0,336000,2.257812976837158,2.21875,0.76547771692276
28-08-1980,2.171875,0.0,212800,2.203125,2.171875,0.7493054270744324
29-08-1980,2.15625,0.0,740800,2.1875,2.171875,0.7493054270744324
02-09-1980,2.171875,0.0,155200,2.195312976837158,2.1875,0.7546963691711426
03-09-1980,2.171875,0.0,1081600,2.265625,2.25,0.7762589454650879
04-09-1980,2.234375,0.0,416000,2.273437976837158,2.25,0.7762589454650879
05-09-1980,2.234375,0.0,731200,2.257812976837158,2.257812976837158,0.7789542078971863
08-09-1980,2.242187976837158,0.0,100800,2.265625,2.242187976837158,0.7735632061958313
09-09-1980,2.234375,0.0,91200,2.242187976837158,2.242187976837158,0.7735632061958313
10-09-1980,2.234375,0.0,83200,2.242187976837158,2.234375,0.7708684206008911
11-09-1980,2.234375,0.0,60800,2.25,2.25,0.7762589454650879
12-09-1980,2.242187976837158,0.0,128000,2.265625,2.265625,0.7816495895385742
15-09-1980,2.25,0.0,236800,2.273437976837158,2.25,0.7762589454650879
16-09-1980,2.25,0.0,96000,2.265625,2.265625,0.7816495895385742
17-09-1980,2.25,0.0,1672000,2.335937976837158,2.328125,0.8032121658325195
18-09-1980,2.335937976837158,0.0,201600,2.367187976837158,2.34375,0.8086029887199402
19-09-1980,2.335937976837158,0.0,124800,2.351562976837158,2.34375,0.8086029887199402
22-09-1980,2.34375,0.0,264000,2.359375,2.351562976837158,0.8112983107566833
23-09-1980,2.335937976837158,0.0,488000,2.375,2.351562976837158,0.8112983107566833
24-09-1980,2.328125,0.0,148800,2.335937976837158,2.328125,0.8032121658325195
25-09-1980,2.296875,0.0,265600,2.328125,2.304687976837158,0.7951261401176453
26-09-1980,2.273437976837158,0.0,352000,2.304687976837158,2.289062976837158,0.7897360324859619
29-09-1980,2.265625,0.0,428800,2.28125,2.28125,0.7870402932167053
30-09-1980,2.265625,0.0,124800,2.289062976837158,2.289062976837158,0.7897360324859619
01-10-1980,2.257812976837158,0.0,100800,2.28125,2.257812976837158,0.7789542078971863
02-10-1980,2.25,0.0,585600,2.273437976837158,2.273437976837158,0.7843447327613831
03-10-1980,2.265625,0.0,180800,2.289062976837158,2.28125,0.7870402932167053
06-10-1980,2.265625,0.0,121600,2.296875,2.265625,0.7816495895385742
07-10-1980,2.25,0.0,459200,2.265625,2.25,0.7762589454650879
08-10-1980,2.242187976837158,0.0,817600,2.28125,2.28125,0.7870402932167053
09-10-1980,2.25,0.0,443200,2.28125,2.265625,0.7816495895385742
10-10-1980,2.203125,0.0,796800,2.234375,2.226562976837158,0.7681729197502136
13-10-1980,2.210937976837158,0.0,97600,2.226562976837158,2.226562976837158,0.7681729197502136
14-10-1980,2.203125,0.0,224000,2.25,2.203125,0.7600865960121155
15-10-1980,2.1875,0.0,113600,2.203125,2.195312976837158,0.7573914527893066
16-10-1980,2.171875,0.0,425600,2.203125,2.1875,0.7546963691711426
17-10-1980,2.15625,0.0,300800,2.1875,2.1875,0.7546963691711426
20-10-1980,2.164062976837158,0.0,150400,2.1875,2.1875,0.7546963691711426
21-10-1980,2.1875,0.0,566400,2.25,2.25,0.7762589454650879
22-10-1980,2.210937976837158,0.0,172800,2.273437976837158,2.234375,0.7708684206008911
23-10-1980,2.234375,0.0,336000,2.265625,2.25,0.7762589454650879
24-10-1980,2.234375,0.0,168000,2.265625,2.265625,0.7816495895385742
27-10-1980,2.234375,0.0,521600,2.25,2.25,0.7762589454650879
28-10-1980,2.234375,0.0,376000,2.265625,2.257812976837158,0.7789542078971863
29-10-1980,2.25,0.0,251200,2.265625,2.265625,0.7816495895385742
30-10-1980,2.257812976837158,0.0,156800,2.273437976837158,2.265625,0.7816495895385742
31-10-1980,2.25,0.0,243200,2.265625,2.265625,0.7816495895385742
03-11-1980,2.226562976837158,0.0,1062400,2.28125,2.28125,0.7870402932167053
05-11-1980,2.273437976837158,0.0,1062400,2.359375,2.28125,0.7870402932167053
06-11-1980,2.28125,0.0,531200,2.3125,2.296875,0.7924306392669678
07-11-1980,2.28125,0.0,579200,2.296875,2.28125,0.7870402932167053
10-11-1980,2.257812976837158,0.0,180800,2.28125,2.273437976837158,0.7843447327613831
11-11-1980,2.265625,0.0,867200,2.28125,2.265625,0.7816495895385742
12-11-1980,2.25,0.0,281600,2.28125,2.273437976837158,0.7843447327613831
13-11-1980,2.257812976837158,0.0,1980800,2.28125,2.273437976837158,0.7843447327613831
14-11-1980,2.273437976837158,0.0,702400,2.304687976837158,2.304687976837158,0.7951261401176453
17-11-1980,2.289062976837158,0.0,1176000,2.34375,2.328125,0.8032121658325195
18-11-1980,2.328125,0.0,164800,2.351562976837158,2.335937976837158,0.8059073686599731
19-11-1980,2.320312976837158,0.0,241600,2.367187976837158,2.359375,0.8139937520027161
20-11-1980,2.34375,0.0,377600,2.421875,2.398437976837158,0.8274703025817871
21-11-1980,2.3125,0.0,209600,2.398437976837158,2.359375,0.8139937520027161
24-11-1980,2.296875,0.0,243200,2.382812976837158,2.34375,0.8086029887199402
25-11-1980,2.296875,0.0,179200,2.351562976837158,2.3125,0.797821581363678
26-11-1980,2.195312976837158,0.0,377600,2.265625,2.203125,0.7600865960121155
28-11-1980,2.171875,0.0,323200,2.203125,2.1875,0.7546963691711426
01-12-1980,2.179687976837158,0.0,152000,2.203125,2.1875,0.7546963691711426
02-12-1980,2.171875,0.0,244800,2.203125,2.203125,0.7600865960121155
03-12-1980,2.1875,0.0,182400,2.25,2.25,0.7762589454650879
04-12-1980,2.21875,0.0,643200,2.265625,2.25,0.7762589454650879
05-12-1980,2.234375,0.0,235200,2.25,2.242187976837158,0.7735632061958313
08-12-1980,2.1875,0.0,385600,2.21875,2.203125,0.7600865960121155
09-12-1980,2.1875,0.0,528000,2.203125,2.1875,0.7546963691711426
10-12-1980,2.1875,0.0,206400,2.234375,2.195312976837158,0.7573914527893066
11-12-1980,2.15625,0.0,456000,2.203125,2.15625,0.7439146041870117
12-12-1980,2.148437976837158,0.0,57600,2.171875,2.15625,0.7439146041870117
15-12-1980,2.117187976837158,0.0,472000,2.148437976837158,2.117187976837158,0.7304378151893616
16-12-1980,2.046875,0.0,131200,2.101562976837158,2.0625,0.711570680141449
17-12-1980,2.070312976837158,0.0,276800,2.101562976837158,2.085937976837158,0.7196568250656128
18-12-1980,2.0625,0.0,168000,2.078125,2.070312976837158,0.7142654657363892
19-12-1980,2.0625,0.0,504000,2.140625,2.140625,0.7385238409042358
22-12-1980,2.125,0.0,384000,2.164062976837158,2.164062976837158,0.7466099858283997
23-12-1980,2.140625,0.0,184000,2.1875,2.15625,0.7439146041870117
24-12-1980,2.132812976837158,0.0,1203200,2.242187976837158,2.242187976837158,0.7735632061958313
26-12-1980,2.226562976837158,0.0,97600,2.265625,2.25,0.7762589454650879
29-12-1980,2.234375,0.0,324800,2.304687976837158,2.265625,0.7816495895385742
30-12-1980,2.234375,0.0,1240000,2.328125,2.328125,0.8032121658325195
31-12-1980,2.320312976837158,0.0,928000,2.546875,2.546875,0.8786818385124207
02-01-1981,2.5,0.0,483200,2.546875,2.546875,0.8786818385124207
05-01-1981,2.5,0.0,1252800,2.601562976837158,2.515625,0.867900013923645
06-01-1981,2.40625,0.0,296000,2.5,2.421875,0.8355563282966614
07-01-1981,2.25,0.0,540800,2.375,2.359375,0.8139937520027161
08-01-1981,2.21875,0.0,680000,2.367187976837158,2.296875,0.7924306392669678
09-01-1981,2.289062976837158,0.0,1307200,2.398437976837158,2.398437976837158,0.8274703025817871
12-01-1981,2.4375,0.0,1108800,2.554687976837158,2.53125,0.8732914328575134
13-01-1981,2.5,0.0,276800,2.53125,2.515625,0.867900013923645
14-01-1981,2.5,0.0,1025600,2.578125,2.523437976837158,0.8705957531929016
15-01-1981,2.5,0.0,310400,2.53125,2.515625,0.867900013923645
16-01-1981,2.507812976837158,0.0,820800,2.640625,2.640625,0.9110263586044312
19-01-1981,2.578125,0.0,768000,2.65625,2.625,0.905634880065918
20-01-1981,2.640625,0.0,822400,2.671875,2.664062976837158,0.9191121459007263
21-01-1981,2.625,0.0,2556800,2.703125,2.6875,0.9271971583366394
22-01-1981,2.609375,0.0,1601600,2.765625,2.640625,0.9110263586044312
23-01-1981,2.578125,0.0,1859200,2.640625,2.625,0.905634880065918
26-01-1981,2.5625,0.0,329600,2.601562976837158,2.5625,0.8840726613998413
27-01-1981,2.5625,0.0,753600,2.59375,2.585937976837158,0.8921583294868469
28-01-1981,2.578125,0.0,358400,2.648437976837158,2.625,0.905634880065918
29-01-1981,2.625,0.0,262400,2.6875,2.65625,0.9164161086082458
30-01-1981,2.640625,0.0,358400,2.695312976837158,2.664062976837158,0.9191121459007263
02-02-1981,2.578125,0.0,187200,2.648437976837158,2.59375,0.8948538899421692
03-02-1981,2.578125,0.0,313600,2.640625,2.625,0.905634880065918
04-02-1981,2.570312976837158,0.0,601600,2.65625,2.578125,0.8894627690315247
05-02-1981,2.570312976837158,0.0,201600,2.625,2.625,0.905634880065918
06-02-1981,2.625,0.0,532800,2.71875,2.710937976837158,0.9352843165397644
09-02-1981,2.664062976837158,0.0,464000,2.71875,2.703125,0.9325888752937317
10-02-1981,2.6875,0.0,472000,2.71875,2.703125,0.9325888752937317
11-02-1981,2.65625,0.0,617600,2.703125,2.6875,0.9271971583366394
12-02-1981,2.625,0.0,196800,2.679687976837158,2.679687976837158,0.9245026111602783
13-02-1981,2.609375,0.0,156800,2.671875,2.640625,0.9110263586044312
17-02-1981,2.601562976837158,0.0,345600,2.65625,2.609375,0.9002442359924316
18-02-1981,2.5625,0.0,428800,2.640625,2.59375,0.8948538899421692
19-02-1981,2.53125,0.0,601600,2.59375,2.546875,0.8786818385124207
20-02-1981,2.539062976837158,0.0,329600,2.554687976837158,2.546875,0.8786818385124207
23-02-1981,2.546875,0.0,427200,2.585937976837158,2.585937976837158,0.8921583294868469
24-02-1981,2.59375,0.0,334400,2.632812976837158,2.625,0.905634880065918
25-02-1981,2.609375,0.0,4424000,2.9375,2.9375,1.0134490728378296
26-02-1981,2.875,0.0,5041600,3.09375,3.046875,1.0511837005615234
27-02-1981,2.992187976837158,0.0,3398400,3.15625,3.15625,1.0889183282852173
02-03-1981,3.140625,0.0,3272000,3.234375,3.210937976837158,1.1077860593795776
03-03-1981,3.09375,0.0,3803200,3.234375,3.148437976837158,1.086222767829895
04-03-1981,3.0625,0.0,1982400,3.125,3.125,1.0781368017196655
05-03-1981,2.984375,0.0,1225600,3.117187976837158,3.0,1.0350115299224854
06-03-1981,2.890625,0.0,1899200,3.039062976837158,3.03125,1.0457931756973267
09-03-1981,2.96875,0.0,712000,3.0625,3.0625,1.0565745830535889
10-03-1981,2.9375,0.0,497600,3.046875,2.960937976837158,1.0215349197387695
11-03-1981,2.914062976837158,0.0,1625600,2.984375,2.96875,1.0242303609848022
12-03-1981,2.9375,0.0,1329600,3.09375,3.078125,1.0619648694992065
13-03-1981,3.09375,0.0,1672000,3.140625,3.125,1.0781368017196655
16-03-1981,3.0625,0.0,566400,3.140625,3.109375,1.0727462768554688
17-03-1981,3.117187976837158,0.0,2062400,3.1875,3.164062976837158,1.0916138887405396
18-03-1981,3.125,0.0,1782400,3.296875,3.21875,1.110480546951294
19-03-1981,3.171875,0.0,648000,3.265625,3.171875,1.0943092107772827
20-03-1981,3.15625,0.0,884800,3.25,3.195312976837158,1.102394938468933
23-03-1981,3.171875,0.0,368000,3.234375,3.21875,1.110480546951294
24-03-1981,3.125,0.0,760000,3.25,3.179687976837158,1.097004771232605
25-03-1981,3.171875,0.0,6833600,3.492187976837158,3.453125,1.1913421154022217
26-03-1981,3.34375,0.0,2190400,3.46875,3.34375,1.153606653213501
27-03-1981,3.328125,0.0,1571200,3.460937976837158,3.390625,1.1697790622711182
30-03-1981,3.28125,0.0,1011200,3.398437976837158,3.28125,1.1320438385009766
31-03-1981,3.328125,0.0,1208000,3.398437976837158,3.382812976837158,1.1670833826065063
01-04-1981,3.335937976837158,0.0,1326400,3.4375,3.40625,1.175168514251709
02-04-1981,3.28125,0.0,723200,3.421875,3.359375,1.1589971780776978
03-04-1981,3.28125,0.0,817600,3.367187976837158,3.296875,1.1374346017837524
06-04-1981,3.3125,0.0,2217600,3.609375,3.609375,1.2452476024627686
07-04-1981,3.515625,0.0,2635200,3.640625,3.546875,1.2236850261688232
08-04-1981,3.46875,0.0,968000,3.585937976837158,3.484375,1.2021231651306152
09-04-1981,3.46875,0.0,2723200,3.5625,3.515625,1.2129040956497192
10-04-1981,3.46875,0.0,1227200,3.5625,3.5625,1.2290765047073364
13-04-1981,3.5625,0.0,1553600,3.609375,3.578125,1.2344672679901123
14-04-1981,3.484375,0.0,555200,3.5625,3.5,1.2075132131576538
15-04-1981,3.4375,0.0,665600,3.507812976837158,3.492187976837158,1.2048182487487793
16-04-1981,3.476562976837158,0.0,716800,3.523437976837158,3.523437976837158,1.2155991792678833
20-04-1981,3.492187976837158,0.0,400000,3.53125,3.515625,1.2129040956497192
21-04-1981,3.296875,0.0,1460800,3.523437976837158,3.296875,1.1374346017837524
22-04-1981,3.28125,0.0,824000,3.367187976837158,3.320312976837158,1.1455211639404297
23-04-1981,3.3125,0.0,907200,3.421875,3.382812976837158,1.1670833826065063
24-04-1981,3.34375,0.0,995200,3.421875,3.40625,1.175168514251709
27-04-1981,3.375,0.0,1088000,3.453125,3.40625,1.175168514251709
28-04-1981,3.234375,0.0,592000,3.390625,3.289062976837158,1.1347393989562988
29-04-1981,3.15625,0.0,633600,3.25,3.179687976837158,1.097004771232605
30-04-1981,3.164062976837158,0.0,756800,3.210937976837158,3.1875,1.0997000932693481
01-05-1981,3.171875,0.0,1225600,3.296875,3.25,1.1212620735168457
04-05-1981,3.171875,0.0,536000,3.25,3.195312976837158,1.102394938468933
05-05-1981,3.09375,0.0,937600,3.140625,3.101562976837158,1.0700514316558838
06-05-1981,3.109375,0.0,716800,3.15625,3.117187976837158,1.0754420757293701
07-05-1981,3.109375,0.0,876800,3.203125,3.1875,1.0997000932693481
08-05-1981,3.164062976837158,0.0,827200,3.203125,3.1875,1.0997000932693481
11-05-1981,3.101562976837158,0.0,372800,3.210937976837158,3.101562976837158,1.0700514316558838
12-05-1981,3.0625,0.0,782400,3.109375,3.078125,1.0619648694992065
13-05-1981,3.046875,0.0,374400,3.125,3.09375,1.0673556327819824
14-05-1981,3.078125,0.0,1054400,3.203125,3.125,1.0781368017196655
15-05-1981,3.109375,0.0,748800,3.15625,3.140625,1.0835282802581787
18-05-1981,3.117187976837158,0.0,348800,3.148437976837158,3.132812976837158,1.0808324813842773
19-05-1981,3.125,0.0,654400,3.203125,3.1875,1.0997000932693481
20-05-1981,3.203125,0.0,1464000,3.40625,3.398437976837158,1.1724743843078613
21-05-1981,3.320312976837158,0.0,801600,3.398437976837158,3.375,1.164387583732605
22-05-1981,3.296875,0.0,388800,3.367187976837158,3.328125,1.1482160091400146
26-05-1981,3.289062976837158,0.0,444800,3.328125,3.328125,1.1482160091400146
27-05-1981,3.265625,0.0,400000,3.359375,3.273437976837158,1.1293487548828125
28-05-1981,3.234375,0.0,273600,3.296875,3.234375,1.1158720254898071
29-05-1981,3.171875,0.0,212800,3.21875,3.203125,1.105090856552124
01-06-1981,3.140625,0.0,1132800,3.242187976837158,3.140625,1.0835282802581787
02-06-1981,3.0,0.0,675200,3.125,3.0625,1.0565745830535889
03-06-1981,2.9375,0.0,411200,3.046875,2.960937976837158,1.0215349197387695
04-06-1981,2.945312976837158,0.0,344000,2.976562976837158,2.96875,1.0242303609848022
05-06-1981,2.921875,0.0,1054400,3.039062976837158,3.03125,1.0457931756973267
08-06-1981,3.015625,0.0,347200,3.078125,3.03125,1.0457931756973267
09-06-1981,3.0,0.0,750400,3.078125,3.046875,1.0511837005615234
10-06-1981,3.0,0.0,369600,3.085937976837158,3.0625,1.0565745830535889
11-06-1981,3.078125,0.0,139200,3.15625,3.15625,1.0889183282852173
12-06-1981,3.085937976837158,0.0,171200,3.140625,3.09375,1.0673556327819824
15-06-1981,3.078125,0.0,233600,3.140625,3.140625,1.0835282802581787
16-06-1981,3.101562976837158,0.0,150400,3.132812976837158,3.109375,1.0727462768554688
17-06-1981,3.054687976837158,0.0,256000,3.09375,3.078125,1.0619648694992065
18-06-1981,3.007812976837158,0.0,185600,3.078125,3.015625,1.0404019355773926
19-06-1981,2.9375,0.0,196800,3.0,2.953125,1.0188395977020264
22-06-1981,2.9375,0.0,363200,2.984375,2.960937976837158,1.0215349197387695
23-06-1981,2.945312976837158,0.0,195200,2.992187976837158,2.96875,1.0242303609848022
24-06-1981,2.90625,0.0,224000,2.976562976837158,2.9375,1.0134490728378296
25-06-1981,2.921875,0.0,192000,2.960937976837158,2.9375,1.0134490728378296
26-06-1981,2.828125,0.0,332800,2.929687976837158,2.875,0.9918857216835022
29-06-1981,2.875,0.0,454400,2.921875,2.914062976837158,1.005362868309021
30-06-1981,2.914062976837158,0.0,284800,2.960937976837158,2.9375,1.0134490728378296
01-07-1981,2.921875,0.0,190400,2.953125,2.945312976837158,1.0161445140838623
02-07-1981,2.921875,0.0,67200,2.953125,2.9375,1.0134490728378296
06-07-1981,2.890625,0.0,198400,2.929687976837158,2.90625,1.0026670694351196
07-07-1981,2.796875,0.0,302400,2.898437976837158,2.804687976837158,0.967628002166748
08-07-1981,2.742187976837158,0.0,870400,2.8125,2.765625,0.9541516304016113
09-07-1981,2.71875,0.0,662400,2.75,2.75,0.9487605094909668
10-07-1981,2.710937976837158,0.0,360000,2.757812976837158,2.71875,0.9379796981811523
13-07-1981,2.6875,0.0,428800,2.726562976837158,2.695312976837158,0.9298929572105408
14-07-1981,2.6875,0.0,577600,2.710937976837158,2.703125,0.9325888752937317
15-07-1981,2.695312976837158,0.0,2560000,2.875,2.796875,0.9649328589439392
16-07-1981,2.796875,0.0,1044800,2.835937976837158,2.835937976837158,0.9784091711044312
17-07-1981,2.828125,0.0,542400,2.898437976837158,2.84375,0.9811052680015564
20-07-1981,2.75,0.0,889600,2.84375,2.765625,0.9541516304016113
21-07-1981,2.742187976837158,0.0,651200,2.8125,2.742187976837158,0.946064829826355
22-07-1981,2.703125,0.0,379200,2.765625,2.703125,0.9325888752937317
23-07-1981,2.671875,0.0,664000,2.757812976837158,2.726562976837158,0.940674901008606
24-07-1981,2.71875,0.0,174400,2.765625,2.75,0.9487605094909668
27-07-1981,2.71875,0.0,350400,2.78125,2.71875,0.9379796981811523
28-07-1981,2.703125,0.0,1201600,2.78125,2.78125,0.9595425128936768
29-07-1981,2.78125,0.0,1441600,2.835937976837158,2.796875,0.9649328589439392
30-07-1981,2.773437976837158,0.0,329600,2.820312976837158,2.789062976837158,0.9622373580932617
31-07-1981,2.78125,0.0,241600,2.8125,2.78125,0.9595425128936768
03-08-1981,2.773437976837158,0.0,460800,2.8125,2.796875,0.9649328589439392
04-08-1981,2.757812976837158,0.0,310400,2.8125,2.796875,0.9649328589439392
05-08-1981,2.796875,0.0,454400,2.890625,2.890625,0.997276782989502
06-08-1981,2.859375,0.0,1337600,2.945312976837158,2.875,0.9918857216835022
07-08-1981,2.835937976837158,0.0,129600,2.890625,2.851562976837158,0.98380047082901
10-08-1981,2.835937976837158,0.0,798400,2.875,2.875,0.9918857216835022
11-08-1981,2.890625,0.0,822400,2.96875,2.953125,1.0188395977020264
12-08-1981,2.875,0.0,324800,2.984375,2.882812976837158,0.9945814609527588
13-08-1981,2.835937976837158,0.0,112000,2.875,2.859375,0.986495316028595
14-08-1981,2.851562976837158,0.0,268800,2.929687976837158,2.90625,1.0026670694351196
17-08-1981,2.851562976837158,0.0,265600,2.921875,2.882812976837158,0.9945814609527588
18-08-1981,2.8125,0.0,1198400,2.882812976837158,2.835937976837158,0.9784091711044312
19-08-1981,2.828125,0.0,326400,2.859375,2.859375,0.986495316028595
20-08-1981,2.851562976837158,0.0,166400,2.867187976837158,2.851562976837158,0.98380047082901
21-08-1981,2.828125,0.0,675200,2.859375,2.835937976837158,0.9784091711044312
24-08-1981,2.828125,0.0,747200,2.851562976837158,2.851562976837158,0.98380047082901
25-08-1981,2.835937976837158,0.0,464000,2.898437976837158,2.882812976837158,0.9945814609527588
26-08-1981,2.867187976837158,0.0,120000,2.890625,2.867187976837158,0.9891912937164307
27-08-1981,2.867187976837158,0.0,112000,2.875,2.867187976837158,0.9891912937164307
28-08-1981,2.867187976837158,0.0,248000,2.875,2.867187976837158,0.9891912937164307
31-08-1981,2.859375,0.0,196800,2.867187976837158,2.859375,0.986495316028595
01-09-1981,2.867187976837158,0.0,342400,2.875,2.867187976837158,0.9891912937164307
02-09-1981,2.875,0.0,153600,2.898437976837158,2.882812976837158,0.9945814609527588
03-09-1981,2.859375,0.0,315200,2.890625,2.859375,0.986495316028595
04-09-1981,2.796875,0.0,465600,2.84375,2.8125,0.9703232049942017
08-09-1981,2.65625,0.0,449600,2.789062976837158,2.695312976837158,0.9298929572105408
09-09-1981,2.664062976837158,0.0,278400,2.703125,2.6875,0.9271971583366394
10-09-1981,2.6875,0.0,217600,2.757812976837158,2.726562976837158,0.940674901008606
11-09-1981,2.6875,0.0,230400,2.726562976837158,2.703125,0.9325888752937317
14-09-1981,2.695312976837158,0.0,393600,2.71875,2.710937976837158,0.9352843165397644
15-09-1981,2.703125,0.0,355200,2.75,2.703125,0.9325888752937317
16-09-1981,2.703125,0.0,403200,2.734375,2.734375,0.9433701634407043
17-09-1981,2.710937976837158,0.0,89600,2.734375,2.710937976837158,0.9352843165397644
18-09-1981,2.632812976837158,0.0,1006400,2.703125,2.640625,0.9110263586044312
21-09-1981,2.640625,0.0,283200,2.648437976837158,2.648437976837158,0.9137212038040161
22-09-1981,2.632812976837158,0.0,240000,2.648437976837158,2.648437976837158,0.9137212038040161
23-09-1981,2.59375,0.0,523200,2.625,2.609375,0.9002442359924316
24-09-1981,2.578125,0.0,484800,2.640625,2.59375,0.8948538899421692
25-09-1981,2.460937976837158,0.0,366400,2.59375,2.46875,0.8517285585403442
28-09-1981,2.390625,0.0,694400,2.546875,2.546875,0.8786818385124207
29-09-1981,2.5625,0.0,737600,2.625,2.5625,0.8840726613998413
30-09-1981,2.5,0.0,313600,2.554687976837158,2.515625,0.867900013923645
01-10-1981,2.453125,0.0,964800,2.523437976837158,2.492187976837158,0.8598141074180603
02-10-1981,2.476562976837158,0.0,2206400,2.523437976837158,2.523437976837158,0.8705957531929016
05-10-1981,2.476562976837158,0.0,516800,2.53125,2.492187976837158,0.8598141074180603
06-10-1981,2.421875,0.0,513600,2.492187976837158,2.4375,0.8409466743469238
07-10-1981,2.40625,0.0,182400,2.4375,2.421875,0.8355563282966614
08-10-1981,2.40625,0.0,644800,2.460937976837158,2.453125,0.8463377952575684
09-10-1981,2.421875,0.0,329600,2.453125,2.4375,0.8409466743469238
12-10-1981,2.414062976837158,0.0,387200,2.4375,2.4375,0.8409466743469238
13-10-1981,2.421875,0.0,110400,2.445312976837158,2.429687976837158,0.8382518291473389
14-10-1981,2.421875,0.0,70400,2.4375,2.421875,0.8355563282966614
15-10-1981,2.421875,0.0,132800,2.4375,2.429687976837158,0.8382518291473389
16-10-1981,2.429687976837158,0.0,1144000,2.453125,2.429687976837158,0.8382518291473389
19-10-1981,2.414062976837158,0.0,216000,2.445312976837158,2.445312976837158,0.8436421751976013
20-10-1981,2.390625,0.0,1475200,2.421875,2.390625,0.8247750997543335
21-10-1981,2.375,0.0,419200,2.414062976837158,2.390625,0.8247750997543335
22-10-1981,2.3125,0.0,283200,2.382812976837158,2.34375,0.8086029887199402
23-10-1981,2.289062976837158,0.0,372800,2.359375,2.296875,0.7924306392669678
26-10-1981,2.289062976837158,0.0,108800,2.328125,2.304687976837158,0.7951261401176453
27-10-1981,2.304687976837158,0.0,153600,2.367187976837158,2.351562976837158,0.8112983107566833
28-10-1981,2.351562976837158,0.0,648000,2.421875,2.382812976837158,0.8220795392990112
29-10-1981,2.351562976837158,0.0,318400,2.382812976837158,2.359375,0.8139937520027161
30-10-1981,2.351562976837158,0.0,491200,2.390625,2.390625,0.8247750997543335
02-11-1981,2.414062976837158,0.0,1241600,2.46875,2.4375,0.8409466743469238
03-11-1981,2.445312976837158,0.0,411200,2.53125,2.53125,0.8732914328575134
04-11-1981,2.5,0.0,1062400,2.53125,2.507812976837158,0.8652051091194153
05-11-1981,2.507812976837158,0.0,451200,2.5625,2.546875,0.8786818385124207
06-11-1981,2.515625,0.0,161600,2.570312976837158,2.5625,0.8840726613998413
09-11-1981,2.539062976837158,0.0,91200,2.570312976837158,2.570312976837158,0.886768102645874
10-11-1981,2.59375,0.0,137600,2.617187976837158,2.59375,0.8948538899421692
11-11-1981,2.59375,0.0,331200,2.617187976837158,2.617187976837158,0.9029399752616882
12-11-1981,2.59375,0.0,236800,2.640625,2.609375,0.9002442359924316
13-11-1981,2.53125,0.0,358400,2.59375,2.554687976837158,0.8813769817352295
16-11-1981,2.453125,0.0,284800,2.53125,2.476562976837158,0.8544237017631531
17-11-1981,2.46875,0.0,500800,2.5,2.492187976837158,0.8598141074180603
18-11-1981,2.46875,0.0,926400,2.5,2.46875,0.8517285585403442
19-11-1981,2.460937976837158,0.0,518400,2.484375,2.476562976837158,0.8544237017631531
20-11-1981,2.476562976837158,0.0,86400,2.5,2.5,0.8625092506408691
23-11-1981,2.445312976837158,0.0,190400,2.492187976837158,2.460937976837158,0.8490332365036011
24-11-1981,2.445312976837158,0.0,150400,2.46875,2.460937976837158,0.8490332365036011
25-11-1981,2.445312976837158,0.0,1275200,2.484375,2.453125,0.8463377952575684
27-11-1981,2.453125,0.0,196800,2.476562976837158,2.476562976837158,0.8544237017631531
30-11-1981,2.460937976837158,0.0,275200,2.53125,2.515625,0.867900013923645
01-12-1981,2.453125,0.0,657600,2.523437976837158,2.484375,0.857119083404541
02-12-1981,2.445312976837158,0.0,364800,2.507812976837158,2.484375,0.857119083404541
03-12-1981,2.476562976837158,0.0,422400,2.515625,2.515625,0.867900013923645
04-12-1981,2.5,0.0,1816000,2.53125,2.515625,0.867900013923645
07-12-1981,2.46875,0.0,400000,2.53125,2.492187976837158,0.8598141074180603
08-12-1981,2.460937976837158,0.0,201600,2.492187976837158,2.46875,0.8517285585403442
09-12-1981,2.460937976837158,0.0,347200,2.492187976837158,2.484375,0.857119083404541
10-12-1981,2.460937976837158,0.0,403200,2.5,2.492187976837158,0.8598141074180603
11-12-1981,2.484375,0.0,281600,2.515625,2.515625,0.867900013923645
14-12-1981,2.4375,0.0,860800,2.492187976837158,2.453125,0.8463377952575684
15-12-1981,2.390625,0.0,264000,2.453125,2.445312976837158,0.8436421751976013
16-12-1981,2.4375,0.0,113600,2.453125,2.445312976837158,0.8436421751976013
17-12-1981,2.4375,0.0,363200,2.453125,2.4375,0.8409466743469238
18-12-1981,2.421875,0.0,209600,2.445312976837158,2.421875,0.8355563282966614
21-12-1981,2.375,0.0,670400,2.4375,2.375,0.8193840980529785
22-12-1981,2.359375,0.0,240000,2.390625,2.375,0.8193840980529785
23-12-1981,2.351562976837158,0.0,388800,2.382812976837158,2.375,0.8193840980529785
24-12-1981,2.367187976837158,0.0,520000,2.382812976837158,2.382812976837158,0.8220795392990112
28-12-1981,2.3125,0.0,1014400,2.375,2.3125,0.797821581363678
29-12-1981,2.3125,0.0,248000,2.328125,2.3125,0.797821581363678
30-12-1981,2.3125,0.0,195200,2.335937976837158,2.328125,0.8032121658325195
31-12-1981,2.21875,0.0,580800,2.375,2.359375,0.8139937520027161
04-01-1982,2.335937976837158,0.0,728000,2.367187976837158,2.367187976837158,0.8166886568069458
05-01-1982,2.296875,0.0,278400,2.359375,2.328125,0.8032121658325195
06-01-1982,2.289062976837158,0.0,336000,2.328125,2.328125,0.8032121658325195
07-01-1982,2.28125,0.0,408000,2.335937976837158,2.296875,0.7924306392669678
08-01-1982,2.257812976837158,0.0,228800,2.3125,2.265625,0.7816495895385742
11-01-1982,2.1875,0.0,5382400,2.265625,2.1875,0.7546963691711426
12-01-1982,2.15625,0.0,358400,2.210937976837158,2.203125,0.7600865960121155
13-01-1982,2.171875,0.0,507200,2.21875,2.1875,0.7546963691711426
14-01-1982,2.15625,0.0,177600,2.179687976837158,2.179687976837158,0.7520013451576233
15-01-1982,2.140625,0.0,291200,2.1875,2.15625,0.7439146041870117
18-01-1982,2.0,0.0,10244800,2.132812976837158,2.0625,0.711570680141449
19-01-1982,2.039062976837158,0.0,312000,2.085937976837158,2.054687976837158,0.7088749408721924
20-01-1982,2.023437976837158,0.0,492800,2.0625,2.046875,0.7061795592308044
21-01-1982,2.023437976837158,0.0,321600,2.046875,2.046875,0.7061795592308044
22-01-1982,2.0,0.0,1499200,2.03125,2.03125,0.7007893919944763
25-01-1982,2.0,0.0,403200,2.03125,2.015625,0.6953984498977661
26-01-1982,1.96875,0.0,1643200,2.015625,2.0,0.6900075674057007
27-01-1982,1.9921879768371582,0.0,345600,2.007812976837158,2.007812976837158,0.6927029490470886
28-01-1982,1.9921879768371582,0.0,492800,2.039062976837158,2.039062976837158,0.7034844160079956
29-01-1982,2.0625,0.0,1184000,2.09375,2.085937976837158,0.7196568250656128
01-02-1982,2.03125,0.0,243200,2.078125,2.046875,0.7061795592308044
02-02-1982,2.007812976837158,0.0,283200,2.0625,2.0625,0.711570680141449
03-02-1982,2.039062976837158,0.0,523200,2.070312976837158,2.070312976837158,0.7142654657363892
04-02-1982,2.046875,0.0,222400,2.078125,2.078125,0.7169613838195801
05-02-1982,2.070312976837158,0.0,353600,2.148437976837158,2.148437976837158,0.7412192821502686
08-02-1982,2.078125,0.0,721600,2.125,2.078125,0.7169613838195801
09-02-1982,2.015625,0.0,203200,2.046875,2.039062976837158,0.7034844160079956
10-02-1982,2.015625,0.0,596800,2.039062976837158,2.039062976837158,0.7034844160079956
11-02-1982,1.9296879768371582,0.0,480000,2.039062976837158,1.953125,0.6738355755805969
12-02-1982,1.9375,0.0,304000,1.9765629768371582,1.9765629768371582,0.6819218993186951
16-02-1982,1.9375,0.0,512000,1.984375,1.984375,0.6846169233322144
17-02-1982,1.9609379768371582,0.0,233600,2.0,1.9765629768371582,0.6819218993186951
18-02-1982,1.9375,0.0,363200,1.9765629768371582,1.9765629768371582,0.6819218993186951
19-02-1982,1.9453129768371582,0.0,192000,1.984375,1.96875,0.6792263388633728
22-02-1982,1.9375,0.0,1331200,2.023437976837158,1.9453129768371582,0.671140193939209
23-02-1982,1.9453129768371582,0.0,182400,1.96875,1.9609379768371582,0.676531195640564
24-02-1982,1.921875,0.0,2142400,1.9609379768371582,1.953125,0.6738355755805969
25-02-1982,1.953125,0.0,889600,1.9765629768371582,1.953125,0.6738355755805969
26-02-1982,1.9453129768371582,0.0,939200,1.96875,1.9609379768371582,0.676531195640564
01-03-1982,1.9375,0.0,419200,1.96875,1.9375,0.6684452891349792
02-03-1982,1.921875,0.0,336000,1.953125,1.9296879768371582,0.6657494306564331
03-03-1982,1.890625,0.0,409600,1.9296879768371582,1.90625,0.6576634645462036
04-03-1982,1.8828129768371582,0.0,235200,1.921875,1.890625,0.6522728204727173
05-03-1982,1.875,0.0,265600,1.90625,1.875,0.646882176399231
08-03-1982,1.84375,0.0,560000,1.8828129768371582,1.84375,0.636100709438324
09-03-1982,1.8125,0.0,1928000,1.8515629768371582,1.828125,0.6307103633880615
10-03-1982,1.8203129768371582,0.0,656000,1.859375,1.859375,0.6414915919303894
11-03-1982,1.84375,0.0,712000,1.9375,1.9375,0.6684452891349792
12-03-1982,1.90625,0.0,336000,1.9609379768371582,1.9609379768371582,0.676531195640564
15-03-1982,1.9453129768371582,0.0,176000,2.0,1.9921879768371582,0.6873125433921814
16-03-1982,1.9765629768371582,0.0,998400,2.007812976837158,2.007812976837158,0.6927029490470886
17-03-1982,1.96875,0.0,952000,2.023437976837158,2.0,0.6900075674057007
18-03-1982,1.9375,0.0,616000,2.0,1.96875,0.6792263388633728
19-03-1982,1.9375,0.0,812800,1.96875,1.96875,0.6792263388633728
22-03-1982,1.9375,0.0,342400,1.96875,1.9609379768371582,0.676531195640564
23-03-1982,1.9609379768371582,0.0,1097600,2.015625,1.9921879768371582,0.6873125433921814
24-03-1982,2.0,0.0,291200,2.03125,2.015625,0.6953984498977661
25-03-1982,1.96875,0.0,1993600,2.0,1.9921879768371582,0.6873125433921814
26-03-1982,1.953125,0.0,265600,1.9921879768371582,1.9609379768371582,0.676531195640564
29-03-1982,1.9609379768371582,0.0,44800,1.984375,1.984375,0.6846169233322144
30-03-1982,1.9765629768371582,0.0,248000,2.007812976837158,1.9921879768371582,0.6873125433921814
31-03-1982,1.96875,0.0,72000,1.984375,1.9765629768371582,0.6819218993186951
01-04-1982,1.96875,0.0,228800,2.0,2.0,0.6900075674057007
02-04-1982,1.9765629768371582,0.0,385600,2.015625,2.007812976837158,0.6927029490470886
05-04-1982,2.0,0.0,372800,2.03125,2.007812976837158,0.6927029490470886
06-04-1982,2.007812976837158,0.0,211200,2.023437976837158,2.015625,0.6953984498977661
07-04-1982,2.007812976837158,0.0,254400,2.03125,2.03125,0.7007893919944763
08-04-1982,2.015625,0.0,155200,2.046875,2.023437976837158,0.6980940103530884
12-04-1982,2.007812976837158,0.0,131200,2.039062976837158,2.023437976837158,0.6980940103530884
13-04-1982,2.023437976837158,0.0,312000,2.046875,2.039062976837158,0.7034844160079956
14-04-1982,2.023437976837158,0.0,408000,2.054687976837158,2.054687976837158,0.7088749408721924
15-04-1982,2.0,0.0,2214400,2.054687976837158,2.007812976837158,0.6927029490470886
16-04-1982,1.984375,0.0,672000,2.015625,2.0,0.6900075674057007
19-04-1982,1.9921879768371582,0.0,412800,2.015625,2.015625,0.6953984498977661
20-04-1982,2.0,0.0,228800,2.015625,2.015625,0.6953984498977661
21-04-1982,2.0,0.0,352000,2.03125,2.015625,0.6953984498977661
22-04-1982,2.0,0.0,467200,2.03125,2.015625,0.6953984498977661
23-04-1982,2.007812976837158,0.0,787200,2.054687976837158,2.054687976837158,0.7088749408721924
26-04-1982,2.070312976837158,0.0,516800,2.117187976837158,2.117187976837158,0.7304378151893616
27-04-1982,2.109375,0.0,404800,2.15625,2.117187976837158,0.7304378151893616
28-04-1982,2.117187976837158,0.0,116800,2.148437976837158,2.125,0.7331330180168152
29-04-1982,2.078125,0.0,249600,2.125,2.085937976837158,0.7196568250656128
30-04-1982,2.046875,0.0,862400,2.132812976837158,2.132812976837158,0.7358286380767822
03-05-1982,2.09375,0.0,3374400,2.164062976837158,2.15625,0.7439146041870117
04-05-1982,2.101562976837158,0.0,3448000,2.15625,2.117187976837158,0.7304378151893616
05-05-1982,2.09375,0.0,745600,2.140625,2.117187976837158,0.7304378151893616
06-05-1982,2.101562976837158,0.0,491200,2.140625,2.109375,0.7277426719665527
07-05-1982,2.09375,0.0,235200,2.125,2.109375,0.7277426719665527
10-05-1982,2.09375,0.0,78400,2.125,2.101562976837158,0.7250472903251648
11-05-1982,2.101562976837158,0.0,164800,2.140625,2.132812976837158,0.7358286380767822
12-05-1982,2.117187976837158,0.0,316800,2.171875,2.140625,0.7385238409042358
13-05-1982,2.0625,0.0,2137600,2.148437976837158,2.078125,0.7169613838195801
14-05-1982,2.0625,0.0,3348800,2.109375,2.109375,0.7277426719665527
17-05-1982,2.09375,0.0,280000,2.125,2.109375,0.7277426719665527
18-05-1982,2.101562976837158,0.0,369600,2.125,2.109375,0.7277426719665527
19-05-1982,2.109375,0.0,539200,2.15625,2.125,0.7331330180168152
20-05-1982,2.101562976837158,0.0,315200,2.140625,2.140625,0.7385238409042358
21-05-1982,2.09375,0.0,737600,2.140625,2.125,0.7331330180168152
24-05-1982,2.09375,0.0,81600,2.125,2.101562976837158,0.7250472903251648
25-05-1982,2.070312976837158,0.0,195200,2.109375,2.085937976837158,0.7196568250656128
26-05-1982,2.070312976837158,0.0,376000,2.09375,2.070312976837158,0.7142654657363892
27-05-1982,2.015625,0.0,241600,2.070312976837158,2.070312976837158,0.7142654657363892
28-05-1982,2.054687976837158,0.0,100800,2.085937976837158,2.078125,0.7169613838195801
01-06-1982,1.96875,0.0,196800,2.085937976837158,1.984375,0.6846169233322144
02-06-1982,1.984375,0.0,427200,2.03125,2.03125,0.7007893919944763
03-06-1982,2.0,0.0,928000,2.078125,2.015625,0.6953984498977661
04-06-1982,1.921875,0.0,1617600,2.0,1.9375,0.6684452891349792
07-06-1982,1.9140629768371582,0.0,307200,1.953125,1.921875,0.6630542874336243
08-06-1982,1.890625,0.0,337600,1.921875,1.8984379768371582,0.6549684405326843
09-06-1982,1.828125,0.0,2569600,1.890625,1.8359379768371582,0.6334056258201599
10-06-1982,1.8203129768371582,0.0,107200,1.875,1.8671879768371582,0.6441867351531982
11-06-1982,1.8984379768371582,0.0,646400,1.9140629768371582,1.9140629768371582,0.6603589057922363
14-06-1982,1.890625,0.0,726400,1.921875,1.921875,0.6630542874336243
15-06-1982,1.890625,0.0,846400,1.921875,1.921875,0.6630542874336243
16-06-1982,1.921875,0.0,409600,1.9453129768371582,1.9375,0.6684452891349792
17-06-1982,1.90625,0.0,161600,1.9296879768371582,1.9296879768371582,0.6657494306564331
18-06-1982,1.90625,0.0,121600,1.9453129768371582,1.921875,0.6630542874336243
21-06-1982,1.8828129768371582,0.0,140800,1.921875,1.8984379768371582,0.6549684405326843
22-06-1982,1.8828129768371582,0.0,100800,1.90625,1.90625,0.6576634645462036
23-06-1982,1.9140629768371582,0.0,182400,1.9609379768371582,1.953125,0.6738355755805969
24-06-1982,1.953125,0.0,635200,1.9921879768371582,1.9609379768371582,0.676531195640564
25-06-1982,1.9453129768371582,0.0,168000,1.984375,1.9765629768371582,0.6819218993186951
28-06-1982,1.984375,0.0,752000,2.023437976837158,2.0,0.6900075674057007
29-06-1982,2.0,0.0,566400,2.09375,2.09375,0.7223520874977112
30-06-1982,2.03125,0.0,728000,2.085937976837158,2.078125,0.7169613838195801
01-07-1982,2.0625,0.0,1262400,2.085937976837158,2.085937976837158,0.7196568250656128
02-07-1982,2.070312976837158,0.0,228800,2.078125,2.078125,0.7169613838195801
06-07-1982,2.046875,0.0,910400,2.085937976837158,2.046875,0.7061795592308044
07-07-1982,2.0,0.0,244800,2.0625,2.0,0.6900075674057007
08-07-1982,2.0,0.0,256000,2.046875,2.039062976837158,0.7034844160079956
09-07-1982,2.039062976837158,0.0,971200,2.0625,2.0625,0.711570680141449
12-07-1982,2.046875,0.0,321600,2.09375,2.0625,0.711570680141449
13-07-1982,2.046875,0.0,1595200,2.070312976837158,2.046875,0.7061795592308044
14-07-1982,2.0,0.0,80000,2.03125,2.015625,0.6953984498977661
15-07-1982,2.0,0.0,219200,2.046875,2.03125,0.7007893919944763
16-07-1982,2.0,0.0,1366400,2.03125,2.023437976837158,0.6980940103530884
19-07-1982,2.03125,0.0,1960000,2.0625,2.046875,0.7061795592308044
20-07-1982,2.046875,0.0,907200,2.09375,2.085937976837158,0.7196568250656128
21-07-1982,2.09375,0.0,1259200,2.179687976837158,2.171875,0.7493054270744324
22-07-1982,2.164062976837158,0.0,206400,2.21875,2.203125,0.7600865960121155
23-07-1982,2.171875,0.0,185600,2.226562976837158,2.1875,0.7546963691711426
26-07-1982,2.1875,0.0,324800,2.242187976837158,2.242187976837158,0.7735632061958313
27-07-1982,2.210937976837158,0.0,184000,2.226562976837158,2.226562976837158,0.7681729197502136
28-07-1982,2.132812976837158,0.0,358400,2.21875,2.140625,0.7385238409042358
29-07-1982,2.109375,0.0,401600,2.203125,2.203125,0.7600865960121155
30-07-1982,2.195312976837158,0.0,336000,2.226562976837158,2.226562976837158,0.7681729197502136
02-08-1982,2.21875,0.0,564800,2.28125,2.273437976837158,0.7843447327613831
03-08-1982,2.234375,0.0,1036800,2.28125,2.25,0.7762589454650879
04-08-1982,2.140625,0.0,4504000,2.203125,2.148437976837158,0.7412192821502686
05-08-1982,2.09375,0.0,241600,2.140625,2.117187976837158,0.7304378151893616
06-08-1982,2.03125,0.0,753600,2.117187976837158,2.03125,0.7007893919944763
09-08-1982,2.007812976837158,0.0,225600,2.054687976837158,2.054687976837158,0.7088749408721924
10-08-1982,2.046875,0.0,363200,2.078125,2.078125,0.7169613838195801
11-08-1982,2.070312976837158,0.0,219200,2.085937976837158,2.078125,0.7169613838195801
12-08-1982,2.070312976837158,0.0,756800,2.101562976837158,2.085937976837158,0.7196568250656128
13-08-1982,2.085937976837158,0.0,801600,2.117187976837158,2.109375,0.7277426719665527
16-08-1982,2.101562976837158,0.0,670400,2.132812976837158,2.117187976837158,0.7304378151893616
17-08-1982,2.125,0.0,614400,2.179687976837158,2.179687976837158,0.7520013451576233
18-08-1982,2.25,0.0,2147200,2.34375,2.296875,0.7924306392669678
19-08-1982,2.28125,0.0,1566400,2.3125,2.3125,0.797821581363678
20-08-1982,2.328125,0.0,1852800,2.484375,2.4375,0.8409466743469238
23-08-1982,2.414062976837158,0.0,1672000,2.5,2.421875,0.8355563282966614
24-08-1982,2.375,0.0,1491200,2.4375,2.40625,0.830165445804596
25-08-1982,2.375,0.0,1664000,2.507812976837158,2.4375,0.8409466743469238
26-08-1982,2.40625,0.0,1835200,2.53125,2.445312976837158,0.8436421751976013
27-08-1982,2.375,0.0,1766400,2.453125,2.40625,0.830165445804596
30-08-1982,2.40625,0.0,1560000,2.515625,2.515625,0.867900013923645
31-08-1982,2.53125,0.0,1078400,2.59375,2.53125,0.8732914328575134
01-09-1982,2.515625,0.0,611200,2.5625,2.515625,0.867900013923645
02-09-1982,2.390625,0.0,681600,2.523437976837158,2.476562976837158,0.8544237017631531
03-09-1982,2.492187976837158,0.0,932800,2.554687976837158,2.539062976837158,0.8759869933128357
07-09-1982,2.53125,0.0,1057600,2.5625,2.546875,0.8786818385124207
08-09-1982,2.53125,0.0,369600,2.554687976837158,2.53125,0.8732914328575134
09-09-1982,2.53125,0.0,905600,2.554687976837158,2.53125,0.8732914328575134
10-09-1982,2.445312976837158,0.0,1099200,2.53125,2.484375,0.857119083404541
13-09-1982,2.40625,0.0,2040000,2.492187976837158,2.484375,0.857119083404541
14-09-1982,2.476562976837158,0.0,827200,2.539062976837158,2.484375,0.857119083404541
15-09-1982,2.453125,0.0,534400,2.515625,2.515625,0.867900013923645
16-09-1982,2.460937976837158,0.0,1214400,2.53125,2.492187976837158,0.8598141074180603
17-09-1982,2.445312976837158,0.0,1208000,2.515625,2.46875,0.8517285585403442
20-09-1982,2.4375,0.0,584000,2.492187976837158,2.492187976837158,0.8598141074180603
21-09-1982,2.476562976837158,0.0,1401600,2.515625,2.515625,0.867900013923645
22-09-1982,2.578125,0.0,2398400,2.617187976837158,2.585937976837158,0.8921583294868469
23-09-1982,2.539062976837158,0.0,457600,2.5625,2.5625,0.8840726613998413
24-09-1982,2.53125,0.0,444800,2.5625,2.5625,0.8840726613998413
27-09-1982,2.53125,0.0,627200,2.5625,2.546875,0.8786818385124207
28-09-1982,2.546875,0.0,1088000,2.59375,2.546875,0.8786818385124207
29-09-1982,2.5,0.0,868800,2.5625,2.5,0.8625092506408691
30-09-1982,2.421875,0.0,380800,2.484375,2.460937976837158,0.8490332365036011
01-10-1982,2.445312976837158,0.0,617600,2.5,2.5,0.8625092506408691
04-10-1982,2.476562976837158,0.0,1147200,2.515625,2.507812976837158,0.8652051091194153
05-10-1982,2.5,0.0,1032000,2.53125,2.515625,0.867900013923645
06-10-1982,2.515625,0.0,1368000,2.570312976837158,2.5625,0.8840726613998413
07-10-1982,2.5625,0.0,841600,2.625,2.609375,0.9002442359924316
08-10-1982,2.578125,0.0,324800,2.609375,2.59375,0.8948538899421692
11-10-1982,2.585937976837158,0.0,542400,2.640625,2.617187976837158,0.9029399752616882
12-10-1982,2.625,0.0,1148800,2.679687976837158,2.679687976837158,0.9245026111602783
13-10-1982,2.671875,0.0,668800,2.84375,2.828125,0.9757137894630432
14-10-1982,2.65625,0.0,795200,2.84375,2.65625,0.9164161086082458
15-10-1982,2.59375,0.0,521600,2.65625,2.632812976837158,0.9083304405212402
18-10-1982,2.648437976837158,0.0,326400,2.734375,2.734375,0.9433701634407043
19-10-1982,2.75,0.0,448000,2.8125,2.804687976837158,0.967628002166748
20-10-1982,2.8125,0.0,1268800,2.9375,2.875,0.9918857216835022
21-10-1982,2.914062976837158,0.0,7321600,3.023437976837158,2.96875,1.0242303609848022
22-10-1982,3.046875,0.0,2614400,3.140625,3.070312976837158,1.059269666671753
25-10-1982,2.875,0.0,764800,3.0625,2.890625,0.997276782989502
26-10-1982,2.828125,0.0,988800,2.921875,2.921875,1.0080584287643433
27-10-1982,2.984375,0.0,780800,3.070312976837158,3.070312976837158,1.059269666671753
28-10-1982,3.054687976837158,0.0,1020800,3.085937976837158,3.0625,1.0565745830535889
29-10-1982,2.96875,0.0,1156800,3.070312976837158,3.007812976837158,1.0377064943313599
01-11-1982,2.945312976837158,0.0,1216000,3.007812976837158,3.0,1.0350115299224854
02-11-1982,2.976562976837158,0.0,1259200,3.039062976837158,3.015625,1.0404019355773926
03-11-1982,3.015625,0.0,1827200,3.179687976837158,3.15625,1.0889183282852173
04-11-1982,3.234375,0.0,2828800,3.351562976837158,3.25,1.1212620735168457
05-11-1982,3.09375,0.0,1425600,3.335937976837158,3.335937976837158,1.1509113311767578
08-11-1982,3.1875,0.0,732800,3.304687976837158,3.273437976837158,1.1293487548828125
09-11-1982,3.21875,0.0,1198400,3.296875,3.21875,1.110480546951294
10-11-1982,3.21875,0.0,739200,3.273437976837158,3.234375,1.1158720254898071
11-11-1982,3.15625,0.0,705600,3.21875,3.164062976837158,1.0916138887405396
12-11-1982,3.164062976837158,0.0,312000,3.203125,3.171875,1.0943092107772827
15-11-1982,3.03125,0.0,1032000,3.171875,3.0625,1.0565745830535889
16-11-1982,3.015625,0.0,918400,3.09375,3.0625,1.0565745830535889
17-11-1982,3.078125,0.0,1840000,3.140625,3.109375,1.0727462768554688
18-11-1982,3.09375,0.0,504000,3.148437976837158,3.140625,1.0835282802581787
19-11-1982,3.109375,0.0,796800,3.1875,3.109375,1.0727462768554688
22-11-1982,3.078125,0.0,769600,3.210937976837158,3.078125,1.0619648694992065
23-11-1982,2.921875,0.0,617600,3.125,2.921875,1.0080584287643433
24-11-1982,2.9375,0.0,529600,3.0625,3.039062976837158,1.0484883785247803
26-11-1982,3.054687976837158,0.0,344000,3.125,3.109375,1.0727462768554688
29-11-1982,3.117187976837158,0.0,272000,3.171875,3.140625,1.0835282802581787
30-11-1982,3.109375,0.0,496000,3.171875,3.140625,1.0835282802581787
01-12-1982,3.1875,0.0,611200,3.234375,3.203125,1.105090856552124
02-12-1982,3.203125,0.0,649600,3.28125,3.234375,1.1158720254898071
03-12-1982,3.1875,0.0,412800,3.25,3.21875,1.110480546951294
06-12-1982,3.21875,0.0,459200,3.265625,3.25,1.1212620735168457
07-12-1982,3.25,0.0,1816000,3.3125,3.265625,1.1266534328460693
08-12-1982,3.21875,0.0,244800,3.28125,3.21875,1.110480546951294
09-12-1982,3.15625,0.0,126400,3.1875,3.15625,1.0889183282852173
10-12-1982,3.078125,0.0,145600,3.179687976837158,3.09375,1.0673556327819824
13-12-1982,2.984375,0.0,572800,3.0625,3.0,1.0350115299224854
14-12-1982,3.0,0.0,286400,3.078125,3.0,1.0350115299224854
15-12-1982,2.96875,0.0,160000,3.0,2.976562976837158,1.0269263982772827
16-12-1982,2.882812976837158,0.0,1177600,2.96875,2.945312976837158,1.0161445140838623
17-12-1982,3.015625,0.0,291200,3.09375,3.09375,1.0673556327819824
20-12-1982,3.046875,0.0,868800,3.09375,3.078125,1.0619648694992065
21-12-1982,3.078125,0.0,160000,3.109375,3.109375,1.0727462768554688
22-12-1982,3.109375,0.0,694400,3.234375,3.234375,1.1158720254898071
23-12-1982,3.265625,0.0,291200,3.3125,3.28125,1.1320438385009766
27-12-1982,3.109375,0.0,803200,3.28125,3.210937976837158,1.1077860593795776
28-12-1982,3.203125,0.0,744000,3.328125,3.296875,1.1374346017837524
29-12-1982,3.234375,0.0,473600,3.304687976837158,3.28125,1.1320438385009766
30-12-1982,3.265625,0.0,315200,3.3125,3.265625,1.1266534328460693
31-12-1982,3.210937976837158,0.0,145600,3.25,3.234375,1.1158720254898071
03-01-1983,3.140625,0.0,499200,3.171875,3.15625,1.0889183282852173
04-01-1983,3.140625,0.0,353600,3.21875,3.21875,1.110480546951294
05-01-1983,3.234375,0.0,515200,3.296875,3.257812976837158,1.1239584684371948
06-01-1983,3.265625,0.0,1033600,3.46875,3.421875,1.1805607080459595
07-01-1983,3.421875,0.0,2430400,3.609375,3.570312976837158,1.231771469116211
10-01-1983,3.46875,0.0,899200,3.539062976837158,3.5,1.2075132131576538
11-01-1983,3.453125,0.0,830400,3.515625,3.5,1.2075132131576538
12-01-1983,3.359375,0.0,593600,3.5,3.359375,1.1589971780776978
13-01-1983,3.265625,0.0,724800,3.390625,3.382812976837158,1.1670833826065063
14-01-1983,3.28125,0.0,454400,3.40625,3.40625,1.175168514251709
17-01-1983,3.382812976837158,0.0,652800,3.414062976837158,3.390625,1.1697790622711182
18-01-1983,3.375,0.0,288000,3.484375,3.484375,1.2021231651306152
19-01-1983,3.375,0.0,1323200,3.492187976837158,3.453125,1.1913421154022217
20-01-1983,3.328125,0.0,425600,3.429687976837158,3.359375,1.1589971780776978
21-01-1983,3.257812976837158,0.0,241600,3.359375,3.28125,1.1320438385009766
24-01-1983,3.15625,0.0,656000,3.242187976837158,3.21875,1.110480546951294
25-01-1983,3.171875,0.0,332800,3.296875,3.21875,1.110480546951294
26-01-1983,3.21875,0.0,328000,3.265625,3.234375,1.1158720254898071
27-01-1983,3.265625,0.0,484800,3.40625,3.359375,1.1589971780776978
28-01-1983,3.375,0.0,462400,3.429687976837158,3.40625,1.175168514251709
31-01-1983,3.40625,0.0,1908800,3.445312976837158,3.429687976837158,1.1832561492919922
01-02-1983,3.375,0.0,1342400,3.453125,3.375,1.164387583732605
02-02-1983,3.34375,0.0,249600,3.398437976837158,3.375,1.164387583732605
03-02-1983,3.351562976837158,0.0,200000,3.40625,3.390625,1.1697790622711182
04-02-1983,3.34375,0.0,1100800,3.421875,3.40625,1.175168514251709
07-02-1983,3.390625,0.0,1614400,3.460937976837158,3.421875,1.1805607080459595
08-02-1983,3.359375,0.0,667200,3.421875,3.375,1.164387583732605
09-02-1983,3.3125,0.0,299200,3.375,3.367187976837158,1.1616926193237305
10-02-1983,3.375,0.0,784000,3.40625,3.40625,1.175168514251709
11-02-1983,3.390625,0.0,768000,3.414062976837158,3.40625,1.175168514251709
14-02-1983,3.390625,0.0,532800,3.40625,3.390625,1.1697790622711182
15-02-1983,3.328125,0.0,1260800,3.390625,3.34375,1.153606653213501
16-02-1983,3.34375,0.0,881600,3.398437976837158,3.375,1.164387583732605
17-02-1983,3.34375,0.0,2440000,3.421875,3.390625,1.1697790622711182
18-02-1983,3.375,0.0,846400,3.421875,3.375,1.164387583732605
22-02-1983,3.375,0.0,1120000,3.40625,3.398437976837158,1.1724743843078613
23-02-1983,3.34375,0.0,1406400,3.398437976837158,3.398437976837158,1.1724743843078613
24-02-1983,3.414062976837158,0.0,2683200,3.5625,3.5625,1.2290765047073364
25-02-1983,3.53125,0.0,2368000,3.601562976837158,3.539062976837158,1.2209908962249756
28-02-1983,3.578125,0.0,1920000,3.625,3.617187976837158,1.2479438781738281
01-03-1983,3.625,0.0,1411200,3.703125,3.6875,1.272201418876648
02-03-1983,3.695312976837158,0.0,1604800,3.75,3.742187976837158,1.2910689115524292
03-03-1983,3.71875,0.0,1451200,3.765625,3.71875,1.2829831838607788
04-03-1983,3.671875,0.0,840000,3.734375,3.703125,1.277592420578003
07-03-1983,3.703125,0.0,425600,3.734375,3.71875,1.2829831838607788
08-03-1983,3.65625,0.0,1718400,3.734375,3.65625,1.261420726776123
09-03-1983,3.640625,0.0,366400,3.6875,3.671875,1.2668107748031616
10-03-1983,3.6875,0.0,595200,3.726562976837158,3.6875,1.272201418876648
11-03-1983,3.671875,0.0,548800,3.695312976837158,3.695312976837158,1.2748982906341553
14-03-1983,3.671875,0.0,542400,3.734375,3.726562976837158,1.2856788635253906
15-03-1983,3.695312976837158,0.0,740800,3.726562976837158,3.726562976837158,1.2856788635253906
16-03-1983,3.734375,0.0,1308800,3.757812976837158,3.75,1.293764352798462
17-03-1983,3.75,0.0,859200,3.828125,3.8125,1.3153269290924072
18-03-1983,3.8125,0.0,1619200,4.0,3.984375,1.3746246099472046
21-03-1983,3.875,0.0,937600,3.976562976837158,3.90625,1.3476711511611938
22-03-1983,3.90625,0.0,1076800,3.96875,3.9375,1.3584526777267456
23-03-1983,3.921875,0.0,940800,3.960937976837158,3.921875,1.3530619144439697
24-03-1983,3.875,0.0,536000,3.929687976837158,3.890625,1.3422799110412598
25-03-1983,3.859375,0.0,564800,3.898437976837158,3.875,1.3368905782699585
28-03-1983,3.859375,0.0,416000,3.898437976837158,3.890625,1.3422799110412598
29-03-1983,3.859375,0.0,576000,3.890625,3.859375,1.331498622894287
30-03-1983,3.789062976837158,0.0,403200,3.867187976837158,3.820312976837158,1.3180227279663086
31-03-1983,3.835937976837158,0.0,547200,3.875,3.84375,1.3261085748672485
04-04-1983,3.84375,0.0,168000,3.875,3.859375,1.331498622894287
05-04-1983,3.84375,0.0,947200,3.875,3.859375,1.331498622894287
06-04-1983,3.8125,3.84375,960000,3.859375,3.84375,1.3261085748672485
07-04-1983,3.828125,3.859375,464000,3.859375,3.84375,1.3261085748672485
08-04-1983,3.75,3.84375,219200,3.84375,3.765625,1.2991559505462646
11-04-1983,3.75,3.765625,387200,3.796875,3.765625,1.2991559505462646
12-04-1983,3.78125,3.796875,313600,3.828125,3.828125,1.320717692375183
13-04-1983,3.84375,3.84375,401600,3.90625,3.90625,1.3476711511611938
14-04-1983,3.914062976837158,3.9375,316800,3.953125,3.9375,1.3584526777267456
15-04-1983,3.914062976837158,3.953125,286400,3.960937976837158,3.914062976837158,1.3503673076629639
18-04-1983,3.888672113418579,3.914062976837158,337600,3.929687976837158,3.929687976837158,1.3557575941085815
19-04-1983,3.898437976837158,3.929687976837158,494400,3.976562976837158,3.976562976837158,1.3719297647476196
20-04-1983,3.96875,3.976562976837158,198400,3.992187976837158,3.984375,1.3746246099472046
21-04-1983,3.953125,3.984375,465600,4.015625,3.953125,1.3638434410095215
22-04-1983,3.9375,3.960937976837158,182400,4.0,3.953125,1.3638434410095215
25-04-1983,3.90625,3.953125,468800,4.0,3.96875,1.3692338466644287
26-04-1983,3.96875,3.992187976837158,272000,4.015625,4.0,1.3800151348114014
27-04-1983,4.0,4.046875,387200,4.09375,4.023437976837158,1.3881018161773682
28-04-1983,4.015625,4.03125,571200,4.046875,4.039062976837158,1.3934922218322754
29-04-1983,4.039062976837158,4.0625,619200,4.085937976837158,4.085937976837158,1.4096652269363403
02-05-1983,4.046875,4.085937976837158,670400,4.117187976837158,4.054687976837158,1.398883581161499
03-05-1983,4.0,4.023437976837158,428800,4.039062976837158,4.039062976837158,1.3934922218322754
04-05-1983,3.976562976837158,4.007812976837158,451200,4.03125,3.992187976837158,1.390009880065918
05-05-1983,3.921875,3.96875,740800,4.007812976837158,3.9375,1.3709686994552612
06-05-1983,3.953125,3.953125,803200,4.078125,4.046875,1.4090514183044434
09-05-1983,4.0,4.015625,553600,4.0625,4.054687976837158,1.4117717742919922
10-05-1983,4.03125,4.070312976837158,492800,4.070312976837158,4.03125,1.4036105871200562
11-05-1983,4.0,4.039062976837158,252800,4.046875,4.023437976837158,1.4008911848068237
12-05-1983,3.96875,4.023437976837158,396800,4.03125,3.976562976837158,1.384569764137268
13-05-1983,3.960937976837158,3.992187976837158,225600,3.992187976837158,3.984375,1.3872891664505005
16-05-1983,3.9375,3.96875,356800,4.0,4.0,1.3927303552627563
17-05-1983,3.976562976837158,4.0,288000,4.015625,4.015625,1.398171067237854
18-05-1983,4.007812976837158,4.007812976837158,825600,4.140625,4.03125,1.4036105871200562
19-05-1983,3.921875,3.984375,1417600,3.984375,3.953125,1.3764091730117798
20-05-1983,3.9375,3.953125,321600,4.007812976837158,4.007812976837158,1.3954505920410156
23-05-1983,4.007812976837158,4.015625,488000,4.0625,4.039062976837158,1.4063314199447632
24-05-1983,4.046875,4.046875,355200,4.117187976837158,4.117187976837158,1.4335334300994873
25-05-1983,4.078125,4.09375,580800,4.117187976837158,4.109375,1.4308128356933594
26-05-1983,4.078125,4.09375,1388800,4.25,4.203125,1.4634546041488647
27-05-1983,4.15625,4.203125,209600,4.203125,4.164062976837158,1.449853777885437
31-05-1983,4.078125,4.164062976837158,601600,4.171875,4.09375,1.42537260055542
01-06-1983,4.0625,4.0625,488000,4.101562976837158,4.101562976837158,1.4280931949615479
02-06-1983,3.984375,4.109375,366400,4.117187976837158,4.03125,1.4036105871200562
03-06-1983,3.96875,4.015625,1065600,4.046875,4.03125,1.4036105871200562
06-06-1983,4.054687976837158,4.0625,5444800,4.078125,4.070312976837158,1.4172124862670898
07-06-1983,4.03125,4.085937976837158,457600,4.085937976837158,4.046875,1.4090514183044434
08-06-1983,4.007812976837158,4.046875,444800,4.054687976837158,4.007812976837158,1.3954505920410156
09-06-1983,3.984375,4.015625,427200,4.023437976837158,4.007812976837158,1.3954505920410156
10-06-1983,4.015625,4.023437976837158,1878400,4.0625,4.0625,1.4144917726516724
13-06-1983,4.0625,4.0625,1062400,4.09375,4.078125,1.4199323654174805
14-06-1983,4.078125,4.078125,272000,4.109375,4.109375,1.4308128356933594
15-06-1983,4.101562976837158,4.109375,592000,4.125,4.117187976837158,1.4335334300994873
16-06-1983,4.125,4.125,628800,4.15625,4.15625,1.447135090827942
17-06-1983,4.125,4.15625,1081600,4.164062976837158,4.125,1.436253309249878
20-06-1983,4.101562976837158,4.109375,222400,4.140625,4.117187976837158,1.4335334300994873
21-06-1983,4.046875,4.101562976837158,340800,4.117187976837158,4.09375,1.42537260055542
22-06-1983,4.0625,4.085937976837158,435200,4.109375,4.09375,1.42537260055542
23-06-1983,4.070312976837158,4.09375,145600,4.109375,4.070312976837158,1.4172124862670898
24-06-1983,4.0625,4.070312976837158,212800,4.09375,4.09375,1.42537260055542
27-06-1983,4.0625,4.070312976837158,609600,4.085937976837158,4.078125,1.4199323654174805
28-06-1983,4.046875,4.09375,428800,4.109375,4.046875,1.4090514183044434
29-06-1983,3.9375,4.039062976837158,1552000,4.039062976837158,3.9375,1.3709686994552612
30-06-1983,3.921875,3.9375,534400,3.984375,3.96875,1.381850242614746
01-07-1983,3.953125,3.953125,947200,4.023437976837158,4.023437976837158,1.4008911848068237
05-07-1983,3.96875,4.007812976837158,155200,4.007812976837158,3.992187976837158,1.390009880065918
06-07-1983,3.9375,3.96875,217600,3.992187976837158,3.984375,1.3872891664505005
07-07-1983,3.921875,3.984375,452800,3.984375,3.96875,1.381850242614746
08-07-1983,3.960937976837158,3.96875,152000,3.984375,3.984375,1.3872891664505005
11-07-1983,3.976562976837158,3.984375,395200,3.992187976837158,3.976562976837158,1.384569764137268
12-07-1983,3.90625,3.976562976837158,569600,3.976562976837158,3.90625,1.3600889444351196
13-07-1983,3.859375,3.890625,291200,3.921875,3.867187976837158,1.346487283706665
14-07-1983,3.875,3.90625,419200,3.9375,3.898437976837158,1.3573684692382812
15-07-1983,3.8125,3.90625,329600,3.914062976837158,3.828125,1.3328866958618164
18-07-1983,3.78125,3.804687976837158,827200,3.828125,3.8125,1.3274463415145874
19-07-1983,3.796875,3.804687976837158,497600,3.820312976837158,3.8125,1.3274463415145874
20-07-1983,3.8125,3.8125,633600,3.875,3.875,1.349207878112793
21-07-1983,4.0,4.03125,681600,4.03125,4.0,1.3927303552627563
22-07-1983,4.015625,4.070312976837158,747200,4.125,4.125,1.436253309249878
25-07-1983,4.148437976837158,4.148437976837158,441600,4.210937976837158,4.210937976837158,1.4661751985549927
26-07-1983,4.21875,4.21875,814400,4.3125,4.3125,1.5015376806259155
27-07-1983,4.1875,4.3125,531200,4.3125,4.195312976837158,1.4607356786727905
28-07-1983,4.0625,4.203125,384000,4.210937976837158,4.085937976837158,1.4226529598236084
29-07-1983,3.953125,4.03125,771200,4.054687976837158,3.992187976837158,1.390009880065918
01-08-1983,3.867187976837158,3.90625,1000000,3.921875,3.914062976837158,1.362809658050537
02-08-1983,3.90625,3.9375,254400,3.953125,3.914062976837158,1.362809658050537
03-08-1983,3.84375,3.890625,656000,3.90625,3.875,1.349207878112793
04-08-1983,3.65625,3.796875,812800,3.84375,3.710937976837158,1.3055602312088013
05-08-1983,3.6875,3.6875,881600,3.757812976837158,3.734375,1.3138065338134766
08-08-1983,3.703125,3.703125,472000,3.828125,3.734375,1.3138065338134766
09-08-1983,3.65625,3.765625,2072000,3.765625,3.671875,1.2918182611465454
10-08-1983,3.5,3.640625,1752000,3.640625,3.53125,1.2423443794250488
11-08-1983,3.5,3.53125,923200,3.609375,3.5625,1.2533379793167114
12-08-1983,3.578125,3.59375,320000,3.65625,3.632812976837158,1.2780755758285522
15-08-1983,3.664062976837158,3.664062976837158,304000,3.765625,3.75,1.3193031549453735
16-08-1983,3.632812976837158,3.75,900800,3.75,3.671875,1.2918182611465454
17-08-1983,3.65625,3.65625,868800,3.75,3.734375,1.3138065338134766
18-08-1983,3.703125,3.765625,305600,3.796875,3.710937976837158,1.3055602312088013
19-08-1983,3.703125,3.71875,187200,3.742187976837158,3.734375,1.3138065338134766
22-08-1983,3.734375,3.742187976837158,1060800,3.8125,3.742187976837158,1.3165545463562012
23-08-1983,3.75,3.773437976837158,288000,3.8125,3.789062976837158,1.3330466747283936
24-08-1983,3.726562976837158,3.765625,225600,3.765625,3.734375,1.3138065338134766
25-08-1983,3.710937976837158,3.71875,550400,3.8125,3.804687976837158,1.3385430574417114
26-08-1983,3.8125,3.8125,433600,3.90625,3.90625,1.3742749691009521
29-08-1983,3.882812976837158,3.921875,259200,3.960937976837158,3.945312976837158,1.3880174160003662
30-08-1983,3.953125,3.953125,1729600,4.070312976837158,4.0,1.4072569608688354
31-08-1983,3.96875,3.96875,924800,3.984375,3.984375,1.401759386062622
01-09-1983,3.96875,3.96875,502400,4.0625,4.046875,1.4237476587295532
02-09-1983,4.046875,4.0625,310400,4.125,4.125,1.4512341022491455
06-09-1983,4.15625,4.171875,457600,4.203125,4.1875,1.4732216596603394
07-09-1983,4.21875,4.21875,1228800,4.335937976837158,4.335937976837158,1.5254451036453247
08-09-1983,4.320312976837158,4.34375,628800,4.375,4.359375,1.5336899757385254
09-09-1983,4.28125,4.359375,2353600,4.375,4.28125,1.5062041282653809
12-09-1983,4.25,4.296875,604800,4.375,4.257812976837158,1.4979591369628906
13-09-1983,4.125,4.265625,381600,4.265625,4.1875,1.4732216596603394
14-09-1983,4.15625,4.21875,126400,4.21875,4.203125,1.478718638420105
15-09-1983,4.1875,4.203125,356800,4.21875,4.21875,1.4842160940170288
16-09-1983,4.0625,4.1875,581600,4.1875,4.09375,1.4402389526367188
19-09-1983,4.09375,4.125,172800,4.21875,4.171875,1.4677252769470215
20-09-1983,4.140625,4.140625,395200,4.25,4.25,1.4952099323272705
21-09-1983,4.203125,4.25,999200,4.46875,4.46875,1.5721700191497803
22-09-1983,4.375,4.46875,1304000,4.46875,4.4375,1.56117582321167
23-09-1983,4.40625,4.421875,452800,4.546875,4.546875,1.5996545553207397
26-09-1983,4.46875,4.546875,338400,4.578125,4.484375,1.5776668787002563
27-09-1983,4.4375,4.5,402400,4.53125,4.5,1.5831634998321533
28-09-1983,4.453125,4.46875,150400,4.53125,4.453125,1.5666731595993042
29-09-1983,4.34375,4.4375,211200,4.5,4.34375,1.5281931161880493
30-09-1983,4.09375,4.28125,1076800,4.28125,4.109375,1.4457365274429321
03-10-1983,4.015625,4.109375,313600,4.109375,4.109375,1.4457365274429321
04-10-1983,4.078125,4.078125,366400,4.265625,4.234375,1.489713191986084
05-10-1983,4.15625,4.1875,376000,4.25,4.25,1.4952099323272705
06-10-1983,4.21875,4.25,899200,4.390625,4.34375,1.5281931161880493
07-10-1983,4.5625,4.5625,759200,4.625,4.609375,1.6216440200805664
10-10-1983,4.515625,4.5625,546400,4.5625,4.515625,1.5886608362197876
11-10-1983,4.5,4.5625,453600,4.59375,4.5,1.5831634998321533
12-10-1983,4.46875,4.5,406400,4.578125,4.5625,1.6051523685455322
13-10-1983,4.5625,4.625,558400,4.65625,4.578125,1.6106504201889038
14-10-1983,4.515625,4.5625,148000,4.609375,4.546875,1.5996545553207397
17-10-1983,4.375,4.53125,324000,4.53125,4.40625,1.5501813888549805
18-10-1983,4.375,4.515625,324000,4.53125,4.40625,1.5501813888549805
19-10-1983,4.375,4.421875,2216000,4.5625,4.40625,1.5501813888549805
20-10-1983,4.40625,4.4375,604800,4.53125,4.46875,1.5721700191497803
21-10-1983,4.453125,4.453125,1336000,4.5625,4.53125,1.5941587686538696
24-10-1983,4.5,4.53125,313600,4.578125,4.5625,1.6051523685455322
25-10-1983,4.53125,4.5625,668800,4.59375,4.546875,1.5996545553207397
26-10-1983,4.453125,4.546875,351200,4.578125,4.515625,1.5886608362197876
27-10-1983,4.484375,4.5,41600,4.5625,4.484375,1.5776668787002563
28-10-1983,4.484375,4.484375,607200,4.53125,4.5,1.5831634998321533
31-10-1983,4.515625,4.53125,478400,4.59375,4.5625,1.6051523685455322
01-11-1983,4.4375,4.578125,793600,4.578125,4.46875,1.5721700191497803
02-11-1983,4.453125,4.46875,877600,4.5625,4.546875,1.5996545553207397
03-11-1983,4.453125,4.53125,236000,4.53125,4.46875,1.5861234664916992
04-11-1983,4.34375,4.375,336800,4.453125,4.34375,1.5417561531066895
07-11-1983,4.25,4.375,408000,4.40625,4.28125,1.519572138786316
08-11-1983,4.203125,4.28125,435200,4.28125,4.203125,1.4918432235717773
09-11-1983,4.203125,4.234375,176800,4.28125,4.25,1.508480191230774
10-11-1983,4.1875,4.25,495200,4.28125,4.203125,1.4918432235717773
11-11-1983,4.21875,4.234375,1606400,4.3125,4.3125,1.5306644439697266
14-11-1983,4.328125,4.328125,616000,4.4375,4.375,1.5528483390808105
15-11-1983,4.34375,4.359375,920800,4.390625,4.34375,1.5417561531066895
16-11-1983,4.296875,4.3125,454400,4.40625,4.40625,1.5639400482177734
17-11-1983,4.359375,4.359375,792000,4.421875,4.390625,1.5583946704864502
18-11-1983,4.328125,4.359375,531200,4.390625,4.390625,1.5583946704864502
21-11-1983,4.375,4.421875,281600,4.4375,4.40625,1.5639400482177734
22-11-1983,4.40625,4.4375,636800,4.5625,4.53125,1.6083067655563354
23-11-1983,4.546875,4.546875,619200,4.65625,4.578125,1.6249446868896484
25-11-1983,4.59375,4.625,273600,4.625,4.59375,1.630490779876709
28-11-1983,4.53125,4.59375,770400,4.625,4.5625,1.619399070739746
29-11-1983,4.4375,4.5625,1019200,4.5625,4.4375,1.5750319957733154
30-11-1983,4.46875,4.5,844000,4.546875,4.515625,1.6027605533599854
01-12-1983,4.484375,4.484375,309600,4.546875,4.5,1.5972152948379517
02-12-1983,4.46875,4.46875,124800,4.5625,4.546875,1.6138520240783691
05-12-1983,4.4375,4.515625,754400,4.515625,4.5,1.5972152948379517
06-12-1983,4.46875,4.515625,184000,4.515625,4.46875,1.5861234664916992
07-12-1983,4.4375,4.4375,735200,4.5,4.4375,1.5750319957733154
08-12-1983,4.40625,4.46875,628800,4.46875,4.4375,1.5750319957733154
09-12-1983,4.40625,4.40625,500000,4.453125,4.4375,1.5750319957733154
12-12-1983,4.390625,4.390625,120000,4.4375,4.390625,1.5583946704864502
13-12-1983,4.375,4.40625,100000,4.453125,4.40625,1.5639400482177734
14-12-1983,4.34375,4.375,1194400,4.40625,4.34375,1.5417561531066895
15-12-1983,4.25,4.25,192800,4.3125,4.265625,1.5140269994735718
16-12-1983,4.1875,4.265625,640800,4.28125,4.234375,1.5029349327087402
19-12-1983,4.203125,4.203125,1264000,4.375,4.296875,1.5251177549362183
20-12-1983,4.28125,4.28125,405600,4.375,4.296875,1.5251177549362183
21-12-1983,4.21875,4.296875,792800,4.3125,4.3125,1.5306644439697266
22-12-1983,4.25,4.3125,403200,4.34375,4.25,1.508480191230774
23-12-1983,4.203125,4.203125,127200,4.25,4.21875,1.497389316558838
27-12-1983,4.234375,4.234375,384800,4.328125,4.328125,1.5362101793289185
28-12-1983,4.25,4.3125,1399200,4.328125,4.296875,1.5251177549362183
29-12-1983,4.296875,4.3125,188800,4.4375,4.4375,1.5750319957733154
30-12-1983,4.34375,4.46875,563200,4.46875,4.359375,1.5473023653030396
03-01-1984,4.328125,4.328125,460000,4.453125,4.34375,1.5417561531066895
04-01-1984,4.3125,4.328125,1320800,4.375,4.34375,1.5417561531066895
05-01-1984,4.34375,4.375,1296000,4.609375,4.5625,1.619399070739746
06-01-1984,4.53125,4.59375,693600,4.625,4.59375,1.630490779876709
09-01-1984,4.578125,4.59375,900800,4.75,4.671875,1.6582205295562744
10-01-1984,4.578125,4.703125,532000,4.71875,4.578125,1.6249446868896484
11-01-1984,4.5,4.5625,502400,4.609375,4.578125,1.6249446868896484
12-01-1984,4.46875,4.53125,204000,4.5625,4.5,1.5972152948379517
13-01-1984,4.3125,4.4375,294400,4.4375,4.375,1.5528483390808105
16-01-1984,4.3125,4.34375,391200,4.421875,4.421875,1.5694855451583862
17-01-1984,4.375,4.421875,351200,4.4375,4.421875,1.5694855451583862
18-01-1984,4.34375,4.421875,552800,4.4375,4.375,1.5528483390808105
19-01-1984,4.40625,4.40625,529600,4.46875,4.4375,1.5750319957733154
20-01-1984,4.453125,4.484375,268000,4.484375,4.453125,1.5805776119232178
23-01-1984,4.296875,4.4375,2306400,4.4375,4.296875,1.5251177549362183
24-01-1984,4.21875,4.296875,504800,4.328125,4.21875,1.497389316558838
25-01-1984,4.1875,4.25,560800,4.296875,4.21875,1.497389316558838
26-01-1984,4.0625,4.15625,846400,4.1875,4.15625,1.4752062559127808
27-01-1984,4.09375,4.125,588800,4.1875,4.125,1.4641141891479492
30-01-1984,3.96875,4.078125,643200,4.078125,4.0,1.4197462797164917
31-01-1984,3.96875,4.0,533600,4.09375,4.0,1.4197462797164917
01-02-1984,3.8125,4.0,642400,4.0625,3.96875,1.408654808998108
02-02-1984,3.859375,3.921875,502400,3.953125,3.875,1.3753794431686401
03-02-1984,3.90625,3.90625,748800,4.0,3.9375,1.3975636959075928
06-02-1984,3.859375,3.890625,1136800,3.96875,3.9375,1.3975636959075928
07-02-1984,3.875,3.921875,891200,3.953125,3.953125,1.4031095504760742
08-02-1984,3.921875,4.03125,405600,4.0625,3.9375,1.3975636959075928
09-02-1984,3.8125,3.921875,765600,3.96875,3.84375,1.3642876148223877
10-02-1984,3.71875,3.84375,756000,3.875,3.78125,1.3421046733856201
13-02-1984,3.71875,3.796875,352000,3.796875,3.765625,1.3365594148635864
14-02-1984,3.625,3.78125,989600,3.78125,3.75,1.3453025817871094
15-02-1984,3.59375,3.75,422400,3.75,3.625,1.3004595041275024
16-02-1984,3.546875,3.671875,396800,3.6875,3.625,1.3004595041275024
17-02-1984,3.421875,3.625,993600,3.640625,3.46875,1.2444050312042236
21-02-1984,3.4375,3.484375,616000,3.5,3.484375,1.2500109672546387
22-02-1984,3.4375,3.484375,3064800,3.609375,3.578125,1.283643126487732
23-02-1984,3.4375,3.578125,684000,3.578125,3.546875,1.2724320888519287
24-02-1984,3.53125,3.5625,696000,3.625,3.59375,1.2892484664916992
27-02-1984,3.640625,3.671875,732800,3.8125,3.78125,1.3565137386322021
28-02-1984,3.625,3.78125,644800,3.78125,3.65625,1.3116707801818848
29-02-1984,3.65625,3.65625,277600,3.796875,3.734375,1.3396968841552734
01-03-1984,3.6875,3.75,355200,3.8125,3.78125,1.3565137386322021
02-03-1984,3.6875,3.75,1381600,3.8125,3.78125,1.3565137386322021
05-03-1984,3.71875,3.8125,566400,3.90625,3.71875,1.3340922594070435
06-03-1984,3.71875,3.75,408800,3.8125,3.765625,1.350908637046814
07-03-1984,3.6875,3.71875,195200,3.8125,3.75,1.3453025817871094
08-03-1984,3.65625,3.734375,291200,3.765625,3.71875,1.3340922594070435
09-03-1984,3.65625,3.75,484000,3.75,3.65625,1.3116707801818848
12-03-1984,3.671875,3.671875,291200,3.796875,3.75,1.3453025817871094
13-03-1984,3.78125,3.78125,470400,3.875,3.8125,1.3677252531051636
14-03-1984,3.78125,3.8125,1076000,3.859375,3.8125,1.3677252531051636
15-03-1984,3.78125,3.8125,289600,3.859375,3.8125,1.3677252531051636
16-03-1984,3.890625,3.90625,772000,3.9375,3.921875,1.4069628715515137
19-03-1984,3.8125,3.890625,313600,3.890625,3.859375,1.3845406770706177
20-03-1984,3.796875,3.828125,220800,3.859375,3.859375,1.3845406770706177
21-03-1984,3.828125,3.828125,252800,3.9375,3.875,1.3901466131210327
22-03-1984,3.78125,3.90625,209600,3.90625,3.828125,1.3733298778533936
23-03-1984,3.75,3.8125,304800,3.84375,3.78125,1.3565137386322021
26-03-1984,3.75,3.78125,122400,3.8125,3.796875,1.362119197845459
27-03-1984,3.75,3.765625,103200,3.8125,3.796875,1.362119197845459
28-03-1984,3.78125,3.796875,248800,3.828125,3.8125,1.3677252531051636
29-03-1984,3.765625,3.828125,260800,3.828125,3.796875,1.362119197845459
30-03-1984,3.71875,3.796875,354400,3.8125,3.796875,1.362119197845459
02-04-1984,3.640625,3.765625,433600,3.796875,3.640625,1.306065320968628
03-04-1984,3.625,3.640625,559200,3.71875,3.6875,1.3228812217712402
04-04-1984,3.65625,3.65625,249600,3.71875,3.703125,1.3284868001937866
05-04-1984,3.65625,3.703125,140800,3.71875,3.703125,1.3284868001937866
06-04-1984,3.640625,3.671875,188000,3.6875,3.65625,1.3116707801818848
09-04-1984,3.5,3.6875,860800,3.71875,3.515625,1.261220932006836
10-04-1984,3.453125,3.5,480800,3.53125,3.453125,1.2388001680374146
11-04-1984,3.390625,3.4375,2084800,3.453125,3.4375,1.2331948280334473
12-04-1984,3.484375,3.484375,885600,3.578125,3.546875,1.2724320888519287
13-04-1984,3.4375,3.578125,2246400,3.59375,3.484375,1.2500109672546387
16-04-1984,3.421875,3.5,888800,3.5,3.46875,1.2444050312042236
17-04-1984,3.484375,3.5,1244800,3.546875,3.5,1.2556164264678955
18-04-1984,3.5,3.515625,1323200,3.53125,3.515625,1.261220932006836
19-04-1984,3.5,3.53125,290400,3.578125,3.5625,1.2780382633209229
23-04-1984,3.546875,3.59375,242400,3.609375,3.5625,1.2780382633209229
24-04-1984,3.484375,3.53125,612800,3.609375,3.5,1.2556164264678955
25-04-1984,3.515625,3.53125,840800,3.59375,3.5625,1.2780382633209229
26-04-1984,3.59375,3.59375,1172800,3.75,3.703125,1.3284868001937866
27-04-1984,3.703125,3.734375,596800,3.8125,3.75,1.3453025817871094
30-04-1984,3.703125,3.75,315200,3.796875,3.78125,1.3565137386322021
01-05-1984,3.78125,3.796875,473600,3.84375,3.84375,1.3789350986480713
02-05-1984,3.78125,3.859375,392800,3.875,3.859375,1.3845406770706177
03-05-1984,3.78125,3.890625,353600,3.890625,3.828125,1.3733298778533936
04-05-1984,3.59375,3.78125,682400,3.796875,3.65625,1.3272730112075806
07-05-1984,3.65625,3.71875,988000,3.75,3.75,1.3613049983978271
08-05-1984,3.71875,3.75,811200,3.828125,3.8125,1.3839939832687378
09-05-1984,3.765625,3.8125,752000,3.875,3.78125,1.3726495504379272
10-05-1984,3.734375,3.78125,208800,3.78125,3.78125,1.3726495504379272
11-05-1984,3.5625,3.78125,575200,3.78125,3.703125,1.34428870677948
14-05-1984,3.578125,3.71875,273600,3.71875,3.625,1.31592857837677
15-05-1984,3.5625,3.625,702400,3.640625,3.578125,1.2989122867584229
16-05-1984,3.453125,3.5625,1334400,3.5625,3.5625,1.2932403087615967
17-05-1984,3.46875,3.53125,1342400,3.5625,3.46875,1.2592072486877441
18-05-1984,3.40625,3.453125,908800,3.5,3.421875,1.2421910762786865
21-05-1984,3.390625,3.40625,536800,3.46875,3.421875,1.2421910762786865
22-05-1984,3.28125,3.421875,1011200,3.421875,3.34375,1.213829755783081
23-05-1984,3.34375,3.359375,583200,3.421875,3.390625,1.2308470010757446
24-05-1984,3.296875,3.375,1495200,3.40625,3.34375,1.213829755783081
25-05-1984,3.28125,3.375,728000,3.40625,3.3125,1.2024863958358765
29-05-1984,3.1875,3.34375,768000,3.359375,3.25,1.1797981262207031
30-05-1984,3.125,3.28125,3813600,3.28125,3.15625,1.145764946937561
31-05-1984,3.09375,3.109375,1299200,3.171875,3.125,1.1344209909439087
01-06-1984,3.171875,3.1875,1281600,3.234375,3.203125,1.1627811193466187
04-06-1984,3.21875,3.21875,2139200,3.46875,3.375,1.2251746654510498
05-06-1984,3.28125,3.40625,825600,3.40625,3.34375,1.213829755783081
06-06-1984,3.40625,3.40625,440000,3.46875,3.46875,1.2592072486877441
07-06-1984,3.46875,3.46875,6442400,3.515625,3.515625,1.276223063468933
08-06-1984,3.484375,3.53125,396800,3.546875,3.53125,1.2818955183029175
11-06-1984,3.515625,3.5625,323200,3.5625,3.53125,1.2818955183029175
12-06-1984,3.453125,3.484375,284000,3.5,3.5,1.2705519199371338
13-06-1984,3.484375,3.5,260800,3.53125,3.515625,1.276223063468933
14-06-1984,3.421875,3.5,861600,3.515625,3.453125,1.2535356283187866
15-06-1984,3.375,3.453125,334400,3.484375,3.40625,1.2365187406539917
18-06-1984,3.375,3.375,472000,3.484375,3.46875,1.2592072486877441
19-06-1984,3.4375,3.5,385600,3.5,3.484375,1.264879822731018
20-06-1984,3.375,3.453125,2826400,3.46875,3.46875,1.2592072486877441
21-06-1984,3.421875,3.46875,983200,3.46875,3.453125,1.2535356283187866
22-06-1984,3.390625,3.453125,839200,3.453125,3.453125,1.2535356283187866
25-06-1984,3.453125,3.484375,1771200,3.515625,3.46875,1.2592072486877441
26-06-1984,3.46875,3.5,2021600,3.546875,3.46875,1.2592072486877441
27-06-1984,3.375,3.4375,542400,3.46875,3.4375,1.247863531112671
28-06-1984,3.390625,3.4375,572000,3.4375,3.4375,1.247863531112671
29-06-1984,3.4375,3.4375,1027200,3.484375,3.484375,1.264879822731018
02-07-1984,3.453125,3.53125,511200,3.53125,3.484375,1.264879822731018
03-07-1984,3.46875,3.5,676000,3.59375,3.5625,1.2932403087615967
05-07-1984,3.5,3.5625,293600,3.578125,3.546875,1.2875678539276123
06-07-1984,3.484375,3.53125,331200,3.65625,3.546875,1.2875678539276123
09-07-1984,3.578125,3.59375,264000,3.625,3.625,1.31592857837677
10-07-1984,3.65625,3.65625,552800,3.78125,3.71875,1.3499614000320435
11-07-1984,3.65625,3.71875,184000,3.75,3.6875,1.338617205619812
12-07-1984,3.5625,3.625,382400,3.6875,3.625,1.31592857837677
13-07-1984,3.546875,3.65625,687200,3.6875,3.609375,1.3102564811706543
16-07-1984,3.546875,3.609375,436000,3.65625,3.625,1.31592857837677
17-07-1984,3.609375,3.625,928800,3.6875,3.65625,1.3272730112075806
18-07-1984,3.53125,3.65625,272800,3.65625,3.625,1.31592857837677
19-07-1984,3.46875,3.625,314400,3.625,3.5,1.2705519199371338
20-07-1984,3.53125,3.53125,136000,3.625,3.59375,1.3045846223831177
23-07-1984,3.53125,3.59375,532000,3.59375,3.546875,1.2875678539276123
24-07-1984,3.53125,3.546875,476800,3.59375,3.546875,1.2875678539276123
25-07-1984,3.515625,3.546875,224800,3.578125,3.546875,1.2875678539276123
26-07-1984,3.5,3.578125,936800,3.578125,3.53125,1.2818955183029175
27-07-1984,3.46875,3.5,457600,3.625,3.53125,1.2818955183029175
30-07-1984,3.46875,3.546875,628000,3.609375,3.5,1.2705519199371338
31-07-1984,3.40625,3.484375,531200,3.53125,3.453125,1.2535356283187866
01-08-1984,3.484375,3.484375,1785600,3.734375,3.625,1.31592857837677
02-08-1984,3.625,3.625,1441600,3.75,3.75,1.3613049983978271
03-08-1984,3.828125,3.875,1789600,3.9375,3.875,1.4066828489303589
06-08-1984,3.8125,3.859375,2960800,3.9375,3.9375,1.4461649656295776
07-08-1984,3.890625,3.90625,716000,4.046875,3.984375,1.4633811712265015
08-08-1984,3.9375,3.984375,592000,4.0,3.9375,1.4461649656295776
09-08-1984,3.875,3.9375,1179200,4.125,4.109375,1.5092912912368774
10-08-1984,4.09375,4.09375,1677600,4.234375,4.1875,1.5379846096038818
13-08-1984,4.0625,4.15625,1063200,4.1875,4.078125,1.4978125095367432
14-08-1984,4.09375,4.15625,637600,4.15625,4.09375,1.503551959991455
15-08-1984,3.96875,4.03125,536000,4.109375,4.078125,1.4978125095367432
16-08-1984,4.046875,4.046875,495200,4.15625,4.09375,1.503551959991455
17-08-1984,4.09375,4.125,474400,4.15625,4.109375,1.5092912912368774
20-08-1984,4.09375,4.09375,893600,4.1875,4.1875,1.5379846096038818
21-08-1984,4.15625,4.21875,700000,4.28125,4.234375,1.5552014112472534
22-08-1984,4.125,4.234375,1062400,4.234375,4.21875,1.5494621992111206
23-08-1984,4.171875,4.1875,199200,4.21875,4.1875,1.5379846096038818
24-08-1984,4.1875,4.1875,376800,4.3125,4.296875,1.5781550407409668
27-08-1984,4.21875,4.3125,188800,4.3125,4.28125,1.5724165439605713
28-08-1984,4.21875,4.25,974400,4.296875,4.234375,1.5552014112472534
29-08-1984,4.171875,4.25,725600,4.28125,4.1875,1.5379846096038818
30-08-1984,4.140625,4.15625,276000,4.203125,4.15625,1.5265084505081177
31-08-1984,4.09375,4.125,365600,4.1875,4.1875,1.5379846096038818
04-09-1984,4.140625,4.15625,382400,4.171875,4.171875,1.5322462320327759
05-09-1984,4.078125,4.140625,368000,4.171875,4.140625,1.5207688808441162
06-09-1984,4.171875,4.171875,220000,4.203125,4.1875,1.5379846096038818
07-09-1984,4.15625,4.234375,332000,4.25,4.1875,1.5379846096038818
10-09-1984,4.140625,4.15625,212800,4.21875,4.1875,1.5379846096038818
11-09-1984,4.21875,4.21875,533600,4.28125,4.25,1.5609396696090698
12-09-1984,4.1875,4.21875,748800,4.25,4.21875,1.5494621992111206
13-09-1984,4.1875,4.1875,1043200,4.34375,4.34375,1.5953723192214966
14-09-1984,4.296875,4.359375,648800,4.375,4.34375,1.5953723192214966
17-09-1984,4.3125,4.3125,676800,4.40625,4.40625,1.6183271408081055
18-09-1984,4.40625,4.421875,744800,4.484375,4.484375,1.6470211744308472
19-09-1984,4.421875,4.453125,767200,4.515625,4.4375,1.6298052072525024
20-09-1984,4.40625,4.40625,536800,4.484375,4.46875,1.641282320022583
21-09-1984,4.4375,4.4375,721600,4.484375,4.4375,1.6298052072525024
24-09-1984,4.40625,4.421875,444000,4.484375,4.46875,1.641282320022583
25-09-1984,4.375,4.453125,1692000,4.453125,4.421875,1.6240665912628174
26-09-1984,4.359375,4.40625,603200,4.46875,4.359375,1.6011110544204712
27-09-1984,4.28125,4.390625,757600,4.40625,4.375,1.6068499088287354
28-09-1984,4.15625,4.265625,817600,4.265625,4.21875,1.5494621992111206
01-10-1984,4.171875,4.1875,296800,4.25,4.21875,1.5494621992111206
02-10-1984,4.171875,4.203125,294400,4.28125,4.171875,1.5322462320327759
03-10-1984,4.0,4.140625,1790400,4.1875,4.03125,1.4805964231491089
04-10-1984,4.03125,4.03125,644000,4.09375,4.09375,1.503551959991455
05-10-1984,4.125,4.125,310400,4.21875,4.171875,1.5322462320327759
08-10-1984,4.078125,4.15625,121600,4.171875,4.109375,1.5092912912368774
09-10-1984,4.09375,4.109375,1056000,4.15625,4.140625,1.5207688808441162
10-10-1984,4.03125,4.140625,262400,4.15625,4.15625,1.5265084505081177
11-10-1984,4.140625,4.140625,126400,4.21875,4.21875,1.5494621992111206
12-10-1984,4.1875,4.1875,442400,4.328125,4.296875,1.5781550407409668
15-10-1984,4.28125,4.3125,1718400,4.390625,4.34375,1.5953723192214966
16-10-1984,4.1875,4.328125,244000,4.34375,4.21875,1.5494621992111206
17-10-1984,4.1875,4.21875,328800,4.28125,4.25,1.5609396696090698
18-10-1984,4.21875,4.21875,368000,4.34375,4.34375,1.5953723192214966
19-10-1984,4.34375,4.34375,1361600,4.5625,4.421875,1.6240665912628174
22-10-1984,4.375,4.421875,663200,4.421875,4.375,1.6068499088287354
23-10-1984,4.3125,4.34375,997600,4.375,4.34375,1.5953723192214966
24-10-1984,4.328125,4.328125,234400,4.4375,4.390625,1.6125887632369995
25-10-1984,4.328125,4.375,1270400,4.390625,4.34375,1.5953723192214966
26-10-1984,4.234375,4.3125,825600,4.34375,4.28125,1.5724165439605713
29-10-1984,4.25,4.265625,343200,4.28125,4.25,1.5609396696090698
30-10-1984,4.21875,4.25,420000,4.359375,4.328125,1.5896329879760742
31-10-1984,4.28125,4.28125,791200,4.3125,4.296875,1.5781550407409668
01-11-1984,4.09375,4.125,859200,4.15625,4.125,1.5150296688079834
02-11-1984,4.0625,4.078125,1601600,4.171875,4.140625,1.5375417470932007
05-11-1984,4.109375,4.125,407200,4.203125,4.203125,1.5607497692108154
06-11-1984,4.21875,4.21875,916000,4.296875,4.296875,1.5955621004104614
07-11-1984,4.234375,4.28125,539200,4.296875,4.28125,1.5897605419158936
08-11-1984,4.25,4.28125,999200,4.296875,4.28125,1.5897605419158936
09-11-1984,4.234375,4.296875,480000,4.3125,4.28125,1.5897605419158936
12-11-1984,4.265625,4.265625,361600,4.3125,4.296875,1.5955621004104614
13-11-1984,4.234375,4.265625,615200,4.296875,4.28125,1.5897605419158936
14-11-1984,4.25,4.265625,357600,4.328125,4.3125,1.6013643741607666
15-11-1984,4.28125,4.3125,764000,4.3125,4.3125,1.6013643741607666
16-11-1984,4.28125,4.3125,492000,4.359375,4.328125,1.6071664094924927
19-11-1984,4.28125,4.296875,768000,4.375,4.3125,1.6013643741607666
20-11-1984,4.21875,4.265625,313600,4.296875,4.25,1.578155517578125
21-11-1984,4.21875,4.28125,612800,4.28125,4.25,1.578155517578125
23-11-1984,4.21875,4.234375,168000,4.28125,4.25,1.578155517578125
26-11-1984,4.203125,4.25,520800,4.25,4.234375,1.5723536014556885
27-11-1984,4.171875,4.203125,790400,4.234375,4.203125,1.5607497692108154
28-11-1984,4.125,4.1875,481600,4.1875,4.140625,1.5375417470932007
29-11-1984,4.03125,4.109375,733600,4.125,4.078125,1.5143330097198486
30-11-1984,4.078125,4.125,350400,4.1875,4.109375,1.5259369611740112
03-12-1984,4.0625,4.078125,244800,4.125,4.078125,1.5143330097198486
04-12-1984,4.078125,4.078125,598400,4.1875,4.15625,1.5433446168899536
05-12-1984,4.0625,4.125,287200,4.125,4.09375,1.5201352834701538
06-12-1984,4.078125,4.09375,384800,4.171875,4.140625,1.5375417470932007
07-12-1984,4.09375,4.09375,342400,4.140625,4.125,1.5317397117614746
10-12-1984,4.125,4.125,331200,4.171875,4.140625,1.5375417470932007
11-12-1984,4.125,4.125,416000,4.1875,4.140625,1.5375417470932007
12-12-1984,4.125,4.125,872800,4.15625,4.140625,1.5375417470932007
13-12-1984,4.09375,4.125,420000,4.15625,4.109375,1.5259369611740112
14-12-1984,4.0625,4.078125,412000,4.125,4.09375,1.5201352834701538
17-12-1984,4.0,4.125,1825600,4.125,4.0625,1.5085316896438599
18-12-1984,4.09375,4.09375,884000,4.171875,4.171875,1.5491459369659424
19-12-1984,4.15625,4.15625,755200,4.21875,4.15625,1.5433446168899536
20-12-1984,4.125,4.203125,779200,4.21875,4.125,1.5317397117614746
21-12-1984,3.9375,4.09375,1142400,4.15625,4.046875,1.5027287006378174
24-12-1984,4.046875,4.078125,260800,4.125,4.109375,1.5259369611740112
26-12-1984,4.03125,4.109375,103200,4.109375,4.046875,1.5027287006378174
27-12-1984,4.046875,4.078125,1440800,4.09375,4.0625,1.5085316896438599
28-12-1984,4.0,4.03125,319200,4.0625,4.046875,1.5027287006378174
31-12-1984,4.046875,4.078125,479200,4.171875,4.109375,1.5259369611740112
02-01-1985,4.109375,4.109375,910400,4.203125,4.15625,1.5433446168899536
03-01-1985,4.125,4.15625,364800,4.171875,4.15625,1.5433446168899536
04-01-1985,4.125,4.140625,332800,4.171875,4.125,1.5317397117614746
07-01-1985,4.140625,4.171875,1047200,4.21875,4.171875,1.5491459369659424
08-01-1985,4.15625,4.171875,320800,4.203125,4.1875,1.554947853088379
09-01-1985,4.1875,4.21875,337600,4.21875,4.21875,1.5665522813796997
10-01-1985,4.203125,4.21875,1797600,4.296875,4.296875,1.5955621004104614
11-01-1985,4.234375,4.296875,1031200,4.3125,4.28125,1.5897605419158936
14-01-1985,4.25,4.25,2920800,4.328125,4.328125,1.6071664094924927
15-01-1985,4.296875,4.328125,5229600,4.4375,4.40625,1.636176347732544
16-01-1985,4.40625,4.5,13840000,4.5625,4.515625,1.6767903566360474
17-01-1985,4.484375,4.515625,1127200,4.515625,4.5,1.67098867893219
18-01-1985,4.515625,4.53125,2415200,4.578125,4.546875,1.6883944272994995
21-01-1985,4.53125,4.53125,1831200,4.71875,4.71875,1.7522181272506714
22-01-1985,4.71875,4.734375,2558400,4.859375,4.734375,1.7580190896987915
23-01-1985,4.71875,4.75,644800,4.796875,4.765625,1.7696235179901123
24-01-1985,4.71875,4.734375,940800,4.796875,4.734375,1.7580190896987915
25-01-1985,4.71875,4.71875,966400,4.921875,4.921875,1.8276445865631104
28-01-1985,4.859375,4.875,801600,5.0,5.0,1.8566532135009766
29-01-1985,4.875,4.921875,579200,4.96875,4.96875,1.8450497388839722
30-01-1985,4.890625,4.984375,1524000,4.984375,4.96875,1.8450497388839722
31-01-1985,4.78125,4.875,620800,4.90625,4.84375,1.7986332178115845
01-02-1985,4.78125,4.8125,423200,4.84375,4.78125,1.7754260301589966
04-02-1985,4.765625,4.765625,1716000,4.828125,4.8125,1.7870301008224487
05-02-1985,4.75,4.8125,636800,4.828125,4.78125,1.7754260301589966
06-02-1985,4.65625,4.765625,1779200,4.8125,4.703125,1.7464162111282349
07-02-1985,4.6875,4.703125,568000,4.78125,4.78125,1.7754260301589966
08-02-1985,4.75,4.78125,959200,4.859375,4.859375,1.8044354915618896
11-02-1985,4.78125,4.8125,571200,4.8125,4.796875,1.7997459173202515
12-02-1985,4.71875,4.765625,586400,4.796875,4.734375,1.7762960195541382
13-02-1985,4.6875,4.71875,432000,4.75,4.734375,1.7762960195541382
14-02-1985,4.65625,4.734375,1396800,4.734375,4.6875,1.7587085962295532
15-02-1985,4.625,4.65625,1879200,4.65625,4.625,1.7352594137191772
19-02-1985,4.609375,4.6875,924800,4.6875,4.609375,1.7293977737426758
20-02-1985,4.578125,4.609375,1586400,4.625,4.59375,1.7235349416732788
21-02-1985,4.546875,4.59375,1268000,4.59375,4.578125,1.7176733016967773
22-02-1985,4.546875,4.5625,1045600,4.609375,4.59375,1.7235349416732788
25-02-1985,4.609375,4.609375,356800,4.609375,4.609375,1.7293977737426758
26-02-1985,4.59375,4.609375,665600,4.65625,4.640625,1.741121768951416
27-02-1985,4.625,4.625,451200,4.6875,4.65625,1.7469840049743652
28-02-1985,4.671875,4.6875,763200,4.71875,4.71875,1.7704349756240845
01-03-1985,4.71875,4.75,774400,4.859375,4.828125,1.81147038936615
04-03-1985,4.734375,4.796875,907200,4.8125,4.765625,1.7880213260650635
05-03-1985,4.71875,4.796875,940000,4.84375,4.75,1.7821584939956665
06-03-1985,4.75,4.75,1347200,4.859375,4.8125,1.8056080341339111
07-03-1985,4.765625,4.78125,678400,4.890625,4.828125,1.81147038936615
08-03-1985,4.8125,4.8125,493600,4.90625,4.90625,1.8407816886901855
11-03-1985,4.859375,4.875,1016000,4.953125,4.875,1.8290575742721558
12-03-1985,4.6875,4.84375,862400,4.875,4.75,1.7821584939956665
13-03-1985,4.6875,4.71875,280800,4.796875,4.703125,1.764573097229004
14-03-1985,4.65625,4.6875,569600,4.8125,4.796875,1.7997459173202515
15-03-1985,4.625,4.765625,582400,4.8125,4.625,1.7352594137191772
18-03-1985,4.625,4.625,464000,4.703125,4.671875,1.752846598625183
19-03-1985,4.640625,4.640625,392800,4.796875,4.75,1.7821584939956665
20-03-1985,4.65625,4.71875,212800,4.71875,4.6875,1.7587085962295532
21-03-1985,4.625,4.65625,334400,4.703125,4.671875,1.752846598625183
22-03-1985,4.65625,4.6875,413600,4.734375,4.703125,1.764573097229004
25-03-1985,4.65625,4.703125,211200,4.734375,4.703125,1.764573097229004
26-03-1985,4.6875,4.71875,472000,4.78125,4.71875,1.7704349756240845
27-03-1985,4.703125,4.734375,250400,4.75,4.734375,1.7762960195541382
28-03-1985,4.640625,4.734375,610400,4.734375,4.671875,1.752846598625183
29-03-1985,4.625,4.703125,410400,4.703125,4.65625,1.7469840049743652
01-04-1985,4.65625,4.671875,460800,4.703125,4.6875,1.7587085962295532
02-04-1985,4.671875,4.703125,448000,4.71875,4.703125,1.764573097229004
03-04-1985,4.671875,4.671875,388000,4.75,4.75,1.7821584939956665
04-04-1985,4.703125,4.703125,434400,4.75,4.734375,1.7762960195541382
08-04-1985,4.703125,4.734375,388000,4.734375,4.734375,1.7762960195541382
09-04-1985,4.6875,4.6875,454400,4.71875,4.71875,1.7704349756240845
10-04-1985,4.65625,4.78125,894400,4.78125,4.6875,1.7587085962295532
11-04-1985,4.671875,4.703125,643200,4.71875,4.6875,1.7587085962295532
12-04-1985,4.625,4.65625,1068800,4.6875,4.65625,1.7469840049743652
15-04-1985,4.625,4.625,189600,4.6875,4.6875,1.7587085962295532
16-04-1985,4.578125,4.640625,768800,4.671875,4.625,1.7352594137191772
17-04-1985,4.421875,4.5625,2160800,4.578125,4.484375,1.6824983358383179
18-04-1985,4.390625,4.40625,640800,4.4375,4.421875,1.6590485572814941
19-04-1985,4.390625,4.4375,615200,4.453125,4.4375,1.6649118661880493
22-04-1985,4.34375,4.40625,780000,4.40625,4.40625,1.653186559677124
23-04-1985,4.34375,4.34375,564000,4.453125,4.453125,1.670774221420288
24-04-1985,4.375,4.390625,4750400,4.453125,4.390625,1.6473243236541748
25-04-1985,4.34375,4.4375,649600,4.4375,4.4375,1.6649118661880493
26-04-1985,4.390625,4.40625,842400,4.4375,4.421875,1.6590485572814941
29-04-1985,4.375,4.421875,504000,4.421875,4.390625,1.6473243236541748
30-04-1985,4.34375,4.359375,612800,4.375,4.359375,1.6355997323989868
01-05-1985,4.34375,4.359375,2526400,4.40625,4.34375,1.6297376155853271
02-05-1985,4.3125,4.328125,977600,4.359375,4.359375,1.6355997323989868
03-05-1985,4.34375,4.359375,497600,4.40625,4.390625,1.6473243236541748
06-05-1985,4.3125,4.359375,297600,4.375,4.3125,1.63664972782135
07-05-1985,4.3125,4.34375,423200,4.375,4.375,1.6603695154190063
08-05-1985,4.328125,4.375,1213600,4.375,4.34375,1.6485096216201782
09-05-1985,4.359375,4.359375,549600,4.40625,4.40625,1.6722289323806763
10-05-1985,4.40625,4.421875,1000000,4.53125,4.515625,1.7137384414672852
13-05-1985,4.46875,4.546875,528000,4.546875,4.5,1.7078096866607666
14-05-1985,4.53125,4.53125,852000,4.625,4.59375,1.7433886528015137
15-05-1985,4.59375,4.609375,1112000,4.6875,4.640625,1.7611775398254395
16-05-1985,4.65625,4.671875,509600,4.75,4.75,1.8026868104934692
17-05-1985,4.78125,4.78125,1585600,4.859375,4.84375,1.8382657766342163
20-05-1985,4.875,4.890625,1227200,4.96875,4.9375,1.8738453388214111
21-05-1985,4.90625,4.9375,665600,4.96875,4.953125,1.8797757625579834
22-05-1985,4.921875,4.9375,1565600,4.96875,4.9375,1.8738453388214111
23-05-1985,4.875,4.921875,925600,4.953125,4.953125,1.8797757625579834
24-05-1985,4.890625,4.96875,918400,4.984375,4.921875,1.8679170608520508
28-05-1985,4.828125,4.90625,714400,4.921875,4.859375,1.8441966772079468
29-05-1985,4.828125,4.84375,803200,4.90625,4.875,1.850127100944519
30-05-1985,4.84375,4.890625,470400,4.90625,4.875,1.850127100944519
31-05-1985,4.84375,4.875,618400,4.90625,4.890625,1.8560563325881958
03-06-1985,4.796875,4.859375,446400,4.890625,4.8125,1.8264076709747314
04-06-1985,4.78125,4.78125,4740800,4.96875,4.921875,1.8679170608520508
05-06-1985,4.9375,4.953125,2116000,5.109375,5.09375,1.933143973350525
06-06-1985,5.03125,5.09375,1146400,5.109375,5.109375,1.9390746355056763
07-06-1985,5.09375,5.09375,784000,5.1875,5.15625,1.956864833831787
10-06-1985,5.125,5.15625,580800,5.15625,5.125,1.9450048208236694
11-06-1985,5.09375,5.140625,719200,5.140625,5.109375,1.9390746355056763
12-06-1985,5.078125,5.109375,701600,5.125,5.09375,1.933143973350525
13-06-1985,5.078125,5.125,1678400,5.15625,5.09375,1.933143973350525
14-06-1985,5.125,5.140625,594400,5.234375,5.21875,1.980583667755127
17-06-1985,5.1875,5.203125,363200,5.25,5.25,1.9924429655075073
18-06-1985,5.171875,5.21875,696800,5.28125,5.1875,1.9687249660491943
19-06-1985,5.15625,5.203125,1571200,5.28125,5.25,1.9924429655075073
20-06-1985,5.21875,5.21875,241600,5.28125,5.28125,2.004302978515625
21-06-1985,5.25,5.25,808000,5.296875,5.296875,2.010234832763672
24-06-1985,5.21875,5.265625,1336800,5.28125,5.265625,1.9983736276626587
25-06-1985,5.1875,5.25,1568000,5.359375,5.203125,1.974655032157898
26-06-1985,5.1875,5.21875,676000,5.28125,5.25,1.9924429655075073
27-06-1985,5.21875,5.25,648000,5.296875,5.21875,1.980583667755127
28-06-1985,5.203125,5.25,646400,5.265625,5.234375,1.9865137338638306
01-07-1985,5.203125,5.234375,485600,5.296875,5.28125,2.004302978515625
02-07-1985,5.25,5.265625,669600,5.3125,5.3125,2.0161635875701904
03-07-1985,5.28125,5.3125,1062400,5.4375,5.40625,2.0517427921295166
05-07-1985,5.390625,5.40625,444000,5.421875,5.421875,2.057673931121826
08-07-1985,5.390625,5.390625,688000,5.421875,5.421875,2.057673931121826
09-07-1985,5.328125,5.421875,791200,5.421875,5.390625,2.0458130836486816
10-07-1985,5.34375,5.375,2248800,5.40625,5.375,2.0398833751678467
11-07-1985,5.328125,5.328125,1067200,5.390625,5.390625,2.0458130836486816
12-07-1985,5.390625,5.421875,568800,5.453125,5.453125,2.069532632827759
15-07-1985,5.4375,5.46875,708800,5.5,5.453125,2.069532632827759
16-07-1985,5.421875,5.453125,656800,5.53125,5.5,2.0873236656188965
17-07-1985,5.59375,5.625,2698400,5.671875,5.671875,2.15255069732666
18-07-1985,5.625,5.671875,1896000,5.796875,5.78125,2.194060802459717
19-07-1985,5.734375,5.75,1309600,5.90625,5.875,2.2296392917633057
22-07-1985,5.71875,5.84375,429600,5.859375,5.765625,2.1881308555603027
23-07-1985,5.59375,5.796875,941600,5.8125,5.625,2.1347615718841553
24-07-1985,5.5,5.65625,410400,5.65625,5.53125,2.0991830825805664
25-07-1985,5.5,5.53125,535200,5.5625,5.5625,2.1110424995422363
26-07-1985,5.546875,5.546875,1002400,5.734375,5.71875,2.170339822769165
29-07-1985,5.59375,5.734375,928000,5.734375,5.640625,2.1406919956207275
30-07-1985,5.59375,5.625,361600,5.65625,5.640625,2.1406919956207275
31-07-1985,5.625,5.640625,216800,5.6875,5.671875,2.15255069732666
01-08-1985,5.625,5.671875,372800,5.6875,5.65625,2.146620988845825
02-08-1985,5.640625,5.671875,945600,5.734375,5.6875,2.158480167388916
05-08-1985,5.640625,5.6875,348800,5.6875,5.65625,2.146620988845825
06-08-1985,5.46875,5.5,2713600,5.65625,5.5,2.1059396266937256
07-08-1985,5.40625,5.5,1204000,5.53125,5.5,2.1059396266937256
08-08-1985,5.5,5.53125,1320000,5.6875,5.6875,2.1777312755584717
09-08-1985,5.609375,5.65625,725600,5.703125,5.640625,2.159783124923706
12-08-1985,5.609375,5.609375,644000,5.65625,5.625,2.153801202774048
13-08-1985,5.625,5.640625,587200,5.6875,5.640625,2.159783124923706
14-08-1985,5.625,5.625,302400,5.6875,5.65625,2.1657660007476807
15-08-1985,5.53125,5.671875,822400,5.671875,5.53125,2.117905616760254
16-08-1985,5.375,5.5,678400,5.53125,5.421875,2.0760252475738525
19-08-1985,5.421875,5.421875,441600,5.484375,5.453125,2.0879900455474854
20-08-1985,5.453125,5.484375,385600,5.578125,5.546875,2.123887300491333
21-08-1985,5.453125,5.53125,1249600,5.625,5.5625,2.1298704147338867
22-08-1985,5.484375,5.59375,1018400,5.59375,5.5,2.1059396266937256
23-08-1985,5.4375,5.46875,458400,5.5625,5.484375,2.0999555587768555
26-08-1985,5.484375,5.484375,340800,5.546875,5.5,2.1059396266937256
27-08-1985,5.484375,5.484375,152800,5.5625,5.5625,2.1298704147338867
28-08-1985,5.46875,5.5625,448800,5.578125,5.5,2.1059396266937256
29-08-1985,5.484375,5.5,355200,5.546875,5.53125,2.117905616760254
30-08-1985,5.484375,5.53125,737600,5.546875,5.53125,2.117905616760254
03-09-1985,5.515625,5.546875,384000,5.6875,5.6875,2.1777312755584717
04-09-1985,5.625,5.6875,371200,5.734375,5.671875,2.171748161315918
05-09-1985,5.5625,5.6875,484000,5.6875,5.578125,2.1358513832092285
06-09-1985,5.484375,5.5625,406400,5.59375,5.546875,2.123887300491333
09-09-1985,5.5,5.5625,142400,5.5625,5.5,2.1059396266937256
10-09-1985,5.46875,5.46875,272800,5.515625,5.5,2.1059396266937256
11-09-1985,5.375,5.5,1280000,5.5,5.390625,2.064058780670166
12-09-1985,5.34375,5.375,597600,5.4375,5.375,2.0580763816833496
13-09-1985,5.375,5.375,556800,5.4375,5.421875,2.0760252475738525
16-09-1985,5.40625,5.453125,253600,5.53125,5.515625,2.1119203567504883
17-09-1985,5.515625,5.515625,879200,5.625,5.609375,2.147817373275757
18-09-1985,5.484375,5.578125,427200,5.640625,5.484375,2.0999555587768555
19-09-1985,5.453125,5.515625,568000,5.515625,5.484375,2.0999555587768555
20-09-1985,5.421875,5.453125,589600,5.53125,5.46875,2.0939724445343018
23-09-1985,5.53125,5.53125,484000,5.59375,5.59375,2.1418352127075195
24-09-1985,5.578125,5.59375,599200,5.65625,5.609375,2.147817373275757
25-09-1985,5.546875,5.546875,301600,5.609375,5.609375,2.147817373275757
26-09-1985,5.53125,5.625,360000,5.625,5.59375,2.1418352127075195
30-09-1985,5.578125,5.59375,349600,5.625,5.625,2.153801202774048
01-10-1985,5.59375,5.609375,324000,5.703125,5.703125,2.183715343475342
02-10-1985,5.59375,5.71875,1103200,5.796875,5.59375,2.1418352127075195
03-10-1985,5.578125,5.578125,260800,5.6875,5.609375,2.147817373275757
04-10-1985,5.546875,5.609375,794400,5.609375,5.578125,2.1358513832092285
07-10-1985,5.390625,5.5625,848800,5.5625,5.40625,2.0700414180755615
08-10-1985,5.40625,5.4375,253600,5.484375,5.453125,2.0879900455474854
09-10-1985,5.40625,5.421875,2060000,5.46875,5.4375,2.0820064544677734
10-10-1985,5.421875,5.421875,260000,5.453125,5.4375,2.0820064544677734
11-10-1985,5.40625,5.40625,1391200,5.46875,5.46875,2.0939724445343018
14-10-1985,5.453125,5.46875,680000,5.53125,5.53125,2.117905616760254
15-10-1985,5.53125,5.5625,476800,5.59375,5.59375,2.1418352127075195
16-10-1985,5.578125,5.578125,1112000,5.671875,5.671875,2.171748161315918
17-10-1985,5.640625,5.640625,757600,5.703125,5.6875,2.1777312755584717
18-10-1985,5.5625,5.671875,757600,5.703125,5.578125,2.1358513832092285
21-10-1985,5.5625,5.59375,1012800,5.734375,5.65625,2.1657660007476807
22-10-1985,5.65625,5.671875,692000,5.71875,5.703125,2.183715343475342
23-10-1985,5.59375,5.703125,376800,5.703125,5.671875,2.171748161315918
24-10-1985,5.59375,5.65625,386400,5.671875,5.625,2.153801202774048
25-10-1985,5.515625,5.59375,182400,5.609375,5.609375,2.147817373275757
28-10-1985,5.546875,5.609375,180000,5.625,5.609375,2.147817373275757
29-10-1985,5.609375,5.609375,212800,5.65625,5.65625,2.1657660007476807
30-10-1985,5.625,5.625,640000,5.671875,5.671875,2.171748161315918
31-10-1985,5.65625,5.65625,524000,5.6875,5.6875,2.1777312755584717
01-11-1985,5.65625,5.65625,965600,5.890625,5.890625,2.2555079460144043
04-11-1985,5.859375,5.90625,1089600,6.0,5.90625,2.2614905834198
05-11-1985,5.8125,6.015625,884000,6.015625,6.015625,2.3250203132629395
06-11-1985,6.015625,6.015625,1521600,6.15625,6.046875,2.337097644805908
07-11-1985,6.03125,6.046875,840000,6.15625,6.15625,2.3793723583221436
08-11-1985,6.046875,6.125,337600,6.125,6.09375,2.3552181720733643
11-11-1985,6.03125,6.09375,656800,6.15625,6.15625,2.3793723583221436
12-11-1985,6.125,6.125,1264800,6.25,6.234375,2.40956711769104
13-11-1985,6.140625,6.25,449600,6.25,6.140625,2.3733339309692383
14-11-1985,6.078125,6.125,614400,6.234375,6.171875,2.3854103088378906
15-11-1985,6.15625,6.15625,1276800,6.3125,6.203125,2.3974874019622803
18-11-1985,6.140625,6.21875,1349600,6.296875,6.296875,2.4337239265441895
19-11-1985,6.34375,6.375,854400,6.421875,6.421875,2.4820356369018555
20-11-1985,6.34375,6.375,290400,6.40625,6.375,2.4639177322387695
21-11-1985,6.34375,6.375,668800,6.40625,6.375,2.4639177322387695
22-11-1985,6.203125,6.34375,374400,6.375,6.21875,2.4035274982452393
25-11-1985,6.1875,6.3125,424800,6.3125,6.265625,2.421645402908325
26-11-1985,6.0625,6.234375,1265600,6.25,6.15625,2.3793723583221436
27-11-1985,6.1875,6.1875,1169600,6.3125,6.28125,2.4276835918426514
29-11-1985,6.203125,6.25,924800,6.3125,6.234375,2.40956711769104
02-12-1985,6.125,6.203125,472800,6.21875,6.203125,2.3974874019622803
03-12-1985,6.171875,6.21875,650400,6.25,6.1875,2.3914501667022705
04-12-1985,6.03125,6.0625,2110400,6.1875,6.171875,2.3854103088378906
05-12-1985,5.9375,6.15625,1506400,6.1875,5.9375,2.294826030731201
06-12-1985,5.5625,5.90625,1225600,5.90625,5.859375,2.2646312713623047
09-12-1985,5.828125,5.828125,827200,6.078125,5.96875,2.3069028854370117
10-12-1985,5.9375,5.9375,409600,6.03125,5.953125,2.30086612701416
11-12-1985,5.9375,5.9375,549600,6.0,5.984375,2.3129422664642334
12-12-1985,5.90625,5.984375,1932000,6.0625,5.984375,2.3129422664642334
13-12-1985,5.984375,5.984375,625600,6.234375,6.203125,2.3974874019622803
16-12-1985,6.140625,6.1875,1236000,6.359375,6.34375,2.4518401622772217
17-12-1985,6.1875,6.359375,1179200,6.359375,6.359375,2.4578778743743896
18-12-1985,6.28125,6.328125,987200,6.375,6.34375,2.4518401622772217
19-12-1985,6.28125,6.296875,683200,6.359375,6.296875,2.4337239265441895
20-12-1985,6.25,6.296875,795200,6.375,6.375,2.4639177322387695
23-12-1985,6.28125,6.3125,602400,6.375,6.359375,2.4578778743743896
24-12-1985,6.09375,6.3125,727200,6.3125,6.140625,2.3733339309692383
26-12-1985,6.09375,6.125,173600,6.140625,6.109375,2.361255407333374
27-12-1985,6.078125,6.078125,525600,6.1875,6.1875,2.3914501667022705
30-12-1985,6.15625,6.1875,418400,6.265625,6.265625,2.421645402908325
31-12-1985,6.25,6.28125,786400,6.375,6.375,2.4639177322387695
02-01-1986,6.296875,6.375,540800,6.375,6.328125,2.4458014965057373
03-01-1986,6.25,6.3125,650400,6.34375,6.296875,2.4337239265441895
06-01-1986,6.140625,6.296875,427200,6.296875,6.1875,2.3914501667022705
07-01-1986,6.03125,6.21875,592000,6.234375,6.125,2.3672940731048584
08-01-1986,5.6875,6.15625,1376800,6.171875,5.71875,2.210278272628784
09-01-1986,5.625,5.625,1164800,5.828125,5.828125,2.2525522708892822
10-01-1986,5.765625,5.8125,749600,5.84375,5.78125,2.2344350814819336
13-01-1986,5.765625,5.78125,688800,5.84375,5.78125,2.2344350814819336
14-01-1986,5.71875,5.78125,1518400,5.796875,5.765625,2.2283976078033447
15-01-1986,5.71875,5.75,1378400,5.90625,5.90625,2.282748222351074
16-01-1986,5.875,5.921875,352000,6.03125,5.984375,2.3129422664642334
17-01-1986,5.9375,5.953125,518400,6.0625,6.015625,2.3250203132629395
20-01-1986,5.890625,5.984375,744800,5.984375,5.96875,2.3069028854370117
21-01-1986,5.875,5.953125,740000,6.0,5.921875,2.288787841796875
22-01-1986,5.8125,5.96875,1319200,6.0,5.8125,2.246514081954956
23-01-1986,5.765625,5.78125,598400,5.875,5.828125,2.2525522708892822
24-01-1986,5.8125,5.8125,909600,5.953125,5.953125,2.30086612701416
27-01-1986,5.890625,5.90625,435200,5.984375,5.96875,2.3069028854370117
28-01-1986,5.9375,6.0,480800,6.0,5.953125,2.30086612701416
29-01-1986,5.953125,5.984375,848000,6.125,6.03125,2.331059217453003
30-01-1986,6.0,6.015625,881600,6.109375,6.0625,2.343137741088867
31-01-1986,6.078125,6.109375,1335200,6.171875,6.140625,2.3733339309692383
03-02-1986,6.109375,6.109375,628000,6.21875,6.203125,2.3974874019622803
04-02-1986,6.21875,6.25,1524000,6.28125,6.234375,2.40956711769104
05-02-1986,6.234375,6.25,1951200,6.328125,6.3125,2.4397614002227783
06-02-1986,6.328125,6.34375,1742400,6.453125,6.421875,2.4820356369018555
07-02-1986,6.359375,6.421875,972000,6.53125,6.53125,2.5243093967437744
10-02-1986,6.546875,6.703125,1145600,6.734375,6.703125,2.5907375812530518
11-02-1986,6.640625,6.875,1729600,6.890625,6.875,2.6791505813598633
12-02-1986,6.75,6.84375,1461600,6.90625,6.75,2.6304385662078857
13-02-1986,6.6875,6.71875,1157600,6.875,6.875,2.6791505813598633
14-02-1986,6.734375,6.90625,1000000,6.96875,6.96875,2.715684175491333
18-02-1986,6.96875,7.0,1034400,7.15625,7.125,2.7765727043151855
19-02-1986,7.125,7.15625,1052000,7.34375,7.171875,2.7948403358459473
20-02-1986,7.125,7.171875,2320800,7.234375,7.15625,2.788750410079956
21-02-1986,7.140625,7.15625,1183200,7.3125,7.265625,2.831374168395996
24-02-1986,7.15625,7.21875,668800,7.3125,7.296875,2.8435518741607666
25-02-1986,7.15625,7.3125,1738400,7.34375,7.21875,2.813107490539551
26-02-1986,7.21875,7.25,732000,7.296875,7.28125,2.837463617324829
27-02-1986,7.25,7.3125,463200,7.375,7.328125,2.855729579925537
28-02-1986,7.46875,7.5,1215200,7.6875,7.6875,2.995776414871216
03-03-1986,7.421875,7.6875,721600,7.6875,7.453125,2.9044418334960938
04-03-1986,7.34375,7.453125,1326400,7.6875,7.53125,2.934887170791626
05-03-1986,7.46875,7.5625,562400,7.5625,7.5625,2.9470648765563965
06-03-1986,7.5625,7.59375,1779200,8.046875,7.984375,3.1114678382873535
07-03-1986,7.84375,7.984375,1203200,7.984375,7.90625,3.081021308898926
10-03-1986,7.71875,7.90625,428000,7.96875,7.71875,3.007953405380249
11-03-1986,7.703125,7.703125,742400,7.921875,7.890625,3.074934482574463
12-03-1986,7.875,7.875,964800,8.15625,8.03125,3.1297340393066406
13-03-1986,7.921875,8.0625,636000,8.125,8.09375,3.154088020324707
14-03-1986,7.53125,8.0625,1812800,8.125,8.0625,3.141911268234253
17-03-1986,7.78125,7.96875,766400,8.0625,7.984375,3.1114678382873535
18-03-1986,7.8125,7.96875,484800,7.984375,7.953125,3.0992894172668457
19-03-1986,7.8125,7.921875,692000,7.96875,7.90625,3.081021308898926
20-03-1986,7.875,7.90625,1108000,8.0625,8.0625,3.141911268234253
21-03-1986,8.0625,8.125,1337600,8.21875,8.15625,3.1784439086914062
24-03-1986,8.125,8.21875,1558400,8.265625,8.203125,3.196711301803589
25-03-1986,7.9375,8.1875,685600,8.1875,8.109375,3.1601779460906982
26-03-1986,8.015625,8.109375,904000,8.109375,8.046875,3.1358225345611572
27-03-1986,8.0,8.09375,678400,8.109375,8.015625,3.1236443519592285
31-03-1986,8.03125,8.078125,582400,8.109375,8.078125,3.148001194000244
01-04-1986,8.015625,8.109375,619200,8.109375,8.015625,3.1236443519592285
02-04-1986,7.96875,8.03125,1211200,8.046875,8.046875,3.1358225345611572
03-04-1986,7.9375,8.046875,392800,8.078125,7.96875,3.105377197265625
04-04-1986,7.59375,7.9375,819200,8.09375,7.59375,2.9592435359954834
07-04-1986,7.546875,7.59375,560800,7.65625,7.65625,2.983597755432129
08-04-1986,7.640625,7.671875,503200,7.875,7.75,3.020132303237915
09-04-1986,7.609375,7.8125,917600,7.890625,7.625,2.971421480178833
10-04-1986,7.375,7.65625,1039200,7.65625,7.59375,2.9592435359954834
11-04-1986,7.546875,7.578125,458400,7.65625,7.625,2.971421480178833
14-04-1986,7.53125,7.65625,730400,7.671875,7.625,2.971421480178833
15-04-1986,7.625,7.65625,269600,7.734375,7.640625,2.977509021759033
16-04-1986,7.71875,7.71875,1074400,8.28125,8.25,3.2149786949157715
17-04-1986,7.9375,8.1875,801600,8.234375,8.0,3.1175551414489746
18-04-1986,7.640625,8.03125,1028000,8.046875,8.03125,3.1297340393066406
21-04-1986,8.0,8.09375,858400,8.109375,8.078125,3.148001194000244
22-04-1986,8.125,8.21875,1219200,8.28125,8.25,3.2149786949157715
23-04-1986,8.1875,8.25,945600,8.28125,8.25,3.2149786949157715
24-04-1986,8.1875,8.1875,652800,8.265625,8.203125,3.196711301803589
25-04-1986,8.15625,8.203125,555200,8.234375,8.234375,3.2088892459869385
28-04-1986,8.15625,8.234375,561600,8.265625,8.234375,3.2088892459869385
29-04-1986,8.015625,8.203125,452000,8.203125,8.09375,3.154088020324707
30-04-1986,8.09375,8.171875,1053600,8.28125,8.125,3.1662678718566895
01-05-1986,8.03125,8.09375,796000,8.25,8.234375,3.2088892459869385
02-05-1986,8.125,8.203125,712800,8.265625,8.203125,3.196711301803589
05-05-1986,8.125,8.171875,431200,8.25,8.21875,3.2028024196624756
06-05-1986,8.09375,8.09375,180800,8.1875,8.09375,3.17728590965271
07-05-1986,8.09375,8.140625,590400,8.25,8.234375,3.2324881553649902
08-05-1986,8.03125,8.28125,355200,8.28125,8.046875,3.1588845252990723
09-05-1986,7.921875,8.015625,398400,8.015625,7.921875,3.1098127365112305
12-05-1986,7.796875,7.9375,1021600,7.953125,7.796875,3.0607457160949707
13-05-1986,7.65625,7.796875,651200,7.796875,7.703125,3.023940324783325
14-05-1986,7.625,7.71875,809600,7.734375,7.625,2.993273973464966
15-05-1986,7.4375,7.640625,608000,7.640625,7.46875,2.9319353103637695
16-05-1986,7.3125,7.4375,1061600,7.5,7.5,2.9442036151885986
19-05-1986,7.515625,7.53125,737600,7.625,7.609375,2.9871389865875244
20-05-1986,7.5625,7.609375,799200,7.75,7.734375,3.036208152770996
21-05-1986,7.640625,7.75,1017600,7.796875,7.75,3.042341470718384
22-05-1986,7.734375,7.75,465600,7.90625,7.90625,3.1036787033081055
23-05-1986,7.890625,7.921875,533600,8.03125,8.015625,3.146615743637085
27-05-1986,7.953125,7.984375,221600,8.015625,7.984375,3.134348154067993
28-05-1986,7.875,7.984375,617600,8.0,7.953125,3.1220812797546387
29-05-1986,7.8125,7.921875,1089600,7.9375,7.9375,3.1159474849700928
30-05-1986,7.828125,7.875,1028000,7.90625,7.890625,3.0975475311279297
02-06-1986,7.875,7.90625,1261600,7.953125,7.953125,3.1220812797546387
03-06-1986,7.90625,7.921875,451200,7.953125,7.953125,3.1220812797546387
04-06-1986,7.96875,7.984375,777600,8.109375,8.09375,3.17728590965271
05-06-1986,8.015625,8.09375,804800,8.109375,8.109375,3.1834182739257812
06-06-1986,7.890625,8.078125,664800,8.09375,7.921875,3.1098127365112305
09-06-1986,7.578125,7.890625,507200,7.890625,7.625,2.993273973464966
10-06-1986,7.59375,7.609375,776800,7.71875,7.65625,3.005539894104004
11-06-1986,7.625,7.671875,693600,7.734375,7.71875,3.0300748348236084
12-06-1986,7.640625,7.6875,357600,7.859375,7.859375,3.085278034210205
13-06-1986,7.84375,7.84375,600000,8.03125,8.03125,3.1527504920959473
16-06-1986,7.9375,8.0,724000,8.0625,8.0625,3.1650173664093018
17-06-1986,7.859375,8.0625,438400,8.0625,7.96875,3.1282145977020264
18-06-1986,7.828125,7.96875,331200,7.96875,7.921875,3.1098127365112305
19-06-1986,7.6875,7.921875,492000,7.9375,7.78125,3.0546088218688965
20-06-1986,7.765625,7.78125,617600,7.875,7.84375,3.0791454315185547
23-06-1986,7.78125,7.875,881600,7.9375,7.90625,3.1036787033081055
24-06-1986,7.890625,7.9375,989600,8.109375,8.0625,3.1650173664093018
25-06-1986,8.078125,8.109375,1040000,8.171875,8.171875,3.207951545715332
26-06-1986,8.21875,8.34375,1207200,8.6875,8.6875,3.410367012023926
27-06-1986,8.53125,8.65625,572000,8.65625,8.59375,3.373563766479492
30-06-1986,8.5,8.5625,396000,8.640625,8.515625,3.3428947925567627
01-07-1986,8.46875,8.5,1366400,8.546875,8.53125,3.349030017852783
02-07-1986,8.4375,8.53125,1432800,8.53125,8.46875,3.3244948387145996
03-07-1986,8.3125,8.484375,1009600,8.484375,8.421875,3.306095838546753
07-07-1986,8.15625,8.453125,603200,8.453125,8.15625,3.2018182277679443
08-07-1986,7.765625,8.0,1141600,8.0,7.9375,3.1159474849700928
09-07-1986,7.828125,7.9375,952800,7.96875,7.921875,3.1098127365112305
10-07-1986,7.703125,7.921875,696000,7.921875,7.84375,3.0791454315185547
11-07-1986,7.78125,7.875,1339200,7.875,7.875,3.0914108753204346
14-07-1986,7.71875,7.84375,626400,7.84375,7.765625,3.0484766960144043
15-07-1986,7.5,7.71875,1178400,7.75,7.53125,2.9564719200134277
16-07-1986,7.515625,7.625,808800,7.671875,7.515625,2.950333833694458
17-07-1986,7.5,7.5,1128000,7.671875,7.640625,2.9994072914123535
18-07-1986,7.65625,7.75,808800,7.90625,7.78125,3.0546088218688965
21-07-1986,7.65625,7.75,498400,7.75,7.71875,3.0300748348236084
22-07-1986,7.6875,7.6875,740000,7.875,7.875,3.0914108753204346
23-07-1986,7.8125,7.859375,1444000,7.984375,7.96875,3.1282145977020264
24-07-1986,7.9375,7.96875,552000,8.0625,8.0625,3.1650173664093018
25-07-1986,7.96875,8.078125,448000,8.09375,8.09375,3.17728590965271
28-07-1986,7.8125,8.078125,580000,8.09375,7.8125,3.0668771266937256
29-07-1986,7.765625,7.828125,768800,7.828125,7.78125,3.0546088218688965
30-07-1986,7.65625,7.78125,514400,7.796875,7.703125,3.023940324783325
31-07-1986,7.65625,7.734375,704800,7.734375,7.703125,3.023940324783325
01-08-1986,7.59375,7.6875,1102400,7.6875,7.59375,2.9810056686401367
04-08-1986,7.5,7.5625,620800,7.859375,7.859375,3.085278034210205
05-08-1986,7.71875,7.71875,760800,7.875,7.71875,3.0533852577209473
06-08-1986,7.53125,7.625,532800,7.640625,7.5625,2.9915754795074463
07-08-1986,7.484375,7.59375,768800,7.625,7.5,2.966853380203247
08-08-1986,7.40625,7.546875,616800,7.546875,7.53125,2.9792160987854004
11-08-1986,7.53125,7.5625,1471200,7.859375,7.859375,3.1090126037597656
12-08-1986,7.78125,7.828125,952000,7.984375,7.921875,3.1337366104125977
13-08-1986,7.921875,7.921875,2211200,8.25,8.1875,3.238813638687134
14-08-1986,8.203125,8.234375,1181600,8.28125,8.234375,3.2573559284210205
15-08-1986,8.15625,8.3125,1148000,8.3125,8.265625,3.26971697807312
18-08-1986,8.125,8.25,1219200,8.25,8.21875,3.2511746883392334
19-08-1986,8.171875,8.1875,1656000,8.203125,8.171875,3.2326302528381348
20-08-1986,8.1875,8.203125,1321600,8.359375,8.359375,3.306802749633789
21-08-1986,8.34375,8.375,1935200,8.5,8.4375,3.3377108573913574
22-08-1986,8.34375,8.46875,779200,8.46875,8.375,3.3129842281341553
25-08-1986,8.28125,8.34375,586400,8.359375,8.296875,3.282080888748169
26-08-1986,8.296875,8.296875,1156800,8.5,8.46875,3.350069999694824
27-08-1986,8.4375,8.453125,981600,8.53125,8.53125,3.3747940063476562
28-08-1986,8.5,8.53125,1001600,8.671875,8.640625,3.4180614948272705
29-08-1986,8.59375,8.59375,3828000,8.796875,8.71875,3.4489662647247314
02-09-1986,8.453125,8.71875,1000000,8.71875,8.46875,3.350069999694824
03-09-1986,8.375,8.46875,1630400,8.625,8.625,3.411879777908325
04-09-1986,8.640625,8.65625,2874400,9.0,8.890625,3.5169565677642822
05-09-1986,8.625,8.875,1639200,8.921875,8.671875,3.4304230213165283
08-09-1986,8.515625,8.59375,1348000,8.78125,8.75,3.4613282680511475
09-09-1986,8.625,8.78125,1900800,8.859375,8.65625,3.424241304397583
10-09-1986,8.5625,8.65625,1460000,8.8125,8.8125,3.486051559448242
11-09-1986,8.4375,8.8125,2055200,8.8125,8.46875,3.350069999694824
12-09-1986,8.1875,8.484375,2328800,8.5,8.34375,3.3006227016448975
15-09-1986,8.390625,8.46875,1860800,8.484375,8.4375,3.3377108573913574
16-09-1986,8.375,8.4375,1300800,8.484375,8.453125,3.3438899517059326
17-09-1986,8.34375,8.453125,1265600,8.484375,8.34375,3.3006227016448975
18-09-1986,8.3125,8.34375,861600,8.40625,8.359375,3.306802749633789
19-09-1986,8.28125,8.359375,1069600,8.421875,8.421875,3.331529378890991
22-09-1986,8.34375,8.390625,415200,8.4375,8.421875,3.331529378890991
23-09-1986,8.421875,8.4375,1432800,8.546875,8.546875,3.380976438522339
24-09-1986,8.390625,8.5,820800,8.5625,8.5625,3.3871572017669678
25-09-1986,8.3125,8.5625,1181600,8.5625,8.375,3.3129842281341553
26-09-1986,8.25,8.34375,456000,8.359375,8.3125,3.288261651992798
29-09-1986,7.9375,8.28125,1515200,8.28125,8.0,3.164642095565796
30-09-1986,7.96875,7.96875,930400,8.0625,8.015625,3.1708226203918457
01-10-1986,8.015625,8.046875,1239200,8.1875,8.125,3.214089870452881
02-10-1986,8.109375,8.171875,648800,8.203125,8.109375,3.2079083919525146
03-10-1986,8.015625,8.078125,416000,8.1875,8.078125,3.1955485343933105
06-10-1986,8.03125,8.046875,403200,8.15625,8.0625,3.1893656253814697
07-10-1986,8.046875,8.078125,541600,8.140625,8.078125,3.1955485343933105
08-10-1986,8.078125,8.109375,1105600,8.21875,8.1875,3.238813638687134
09-10-1986,8.21875,8.21875,1460800,8.28125,8.21875,3.2511746883392334
